ts,height,velocity,acceleration
-0.75,-0.1222626343369484,-0.015360075980424881,0.0042699165642261505
-0.74,-0.13200579583644867,-0.02523835003376007,0.004115432500839233
-0.73,-0.13970519602298737,-0.03290162608027458,0.003995463252067566
-0.72,-0.14732199907302856,-0.040401358157396317,0.0038780607283115387
-0.71,-0.153251513838768,-0.0460791178047657,0.0037890449166297913
-0.7,-0.16071997582912445,-0.05329112708568573,0.0036761537194252014
-0.69,-0.17845937609672546,-0.07105529308319092,0.0033989660441875458
-0.68,-0.20439782738685608,-0.09712066501379013,0.0029925592243671417
-0.67,-0.22167164087295532,-0.11386159062385559,0.012272391468286514
-0.66,-0.23336924612522125,-0.12466315925121307,0.012102283537387848
-0.65,-0.25031954050064087,-0.14078879356384277,0.0118492990732193
-0.64,-0.2670811414718628,-0.15664984285831451,0.002059493213891983
-0.63,-0.278268426656723,-0.1665824055671692,0.0019045062363147736
-0.62,-0.28932392597198486,-0.17627739906311035,0.001753244549036026
-0.61,-0.29331472516059875,-0.17856495082378387,0.0017173513770103455
-0.6,-0.29724618792533875,-0.18076781928539276,0.001682780683040619
-0.59,-0.2959679067134857,-0.1776534616947174,-0.007809966802597046
-0.58,-0.2946853041648865,-0.1745663583278656,-0.007760681211948395
-0.57,-0.29339873790740967,-0.1715065985918045,-0.007711827754974365
-0.56,-0.29210853576660156,-0.1684742420911789,-0.007663410156965256
-0.55,-0.2908150553703308,-0.16546937823295593,-0.007615428417921066
-0.54,-0.2895186245441437,-0.1624920815229416,-0.007567882537841797
-0.53,-0.2882195711135864,-0.15954239666461945,-0.0075207725167274475
-0.52,-0.2869187295436859,-0.15671582520008087,-0.01701752096414566
-0.51,-0.2856158912181854,-0.15372610092163086,0.002114593982696533
-0.5,-0.2739561200141907,-0.14005222916603088,0.0023271888494491577
-0.49,-0.2589346468448639,-0.12303990870714188,0.0025917328894138336
-0.48,-0.24405412375926971,-0.10634677857160568,0.0028512664139270782
-0.47,-0.22426679730415344,-0.08474749326705933,0.0031871572136878967
-0.46,-0.20972111821174622,-0.06879100203514099,0.0034351274371147156
-0.45,-0.19026900827884674,-0.04792121797800064,0.003759566694498062
-0.44,-0.1710107922554016,-0.0274647306650877,0.0040775202214717865
-0.43,-0.16745030879974365,-0.023456595838069916,0.00413929671049118
-0.42,-0.1639234870672226,-0.01952412538230419,0.004199884831905365
-0.41,-0.1810310333967209,-0.03697875142097473,0.003927435725927353
-0.4,-0.19795922935009003,-0.05406995862722397,0.003660690039396286
-0.39,-0.1973743736743927,-0.05286911129951477,0.0036788173019886017
-0.38,-0.21412353217601776,-0.06961318850517273,0.0034175142645835876
-0.37,-0.2236398607492447,-0.07870399951934814,0.0032754242420196533
-0.36,-0.23305034637451172,-0.08759269118309021,0.00313650444149971
-0.35,-0.2545689344406128,-0.10891708731651306,0.002803962677717209
-0.34,-0.26364201307296753,-0.11714882403612137,0.0026753470301628113
-0.33,-0.2707754969596863,-0.12329007685184479,0.002579301595687866
-0.32,-0.272718608379364,-0.12399914115667343,0.002567857503890991
-0.31,-0.2746288776397705,-0.12466700375080109,0.00255705788731575
-0.3,-0.27650701999664307,-0.12538976967334747,-0.00699557363986969
-0.29,-0.2732446789741516,-0.1207871288061142,-0.00692281499505043
-0.28,-0.26491039991378784,-0.11098429560661316,-0.006769090890884399
-0.27,-0.25665029883384705,-0.10126315802335739,0.002924315631389618
-0.26,-0.24846458435058594,-0.09181299060583115,-0.0064699649810791016
-0.25,-0.24035395681858063,-0.08253676444292068,-0.006324511021375656
-0.24,-0.23231807351112366,-0.07333746552467346,0.003360699862241745
-0.23,-0.22776663303375244,-0.0678366869688034,0.0034458301961421967
-0.22,-0.22479255497455597,-0.06402382254600525,0.003504667431116104
-0.21,-0.22184109687805176,-0.06008334457874298,0.022648394107818604
-0.2,-0.21891148388385773,-0.05620565637946129,0.02270524948835373
-0.19,-0.21945808827877045,-0.05596378445625305,0.022705480456352234
-0.18,-0.21998973190784454,-0.05542413890361786,0.05133328586816788
-0.17,-0.2205047309398651,-0.05477791652083397,0.06087728962302208
-0.16,-0.220969095826149,-0.054085999727249146,0.060878586024045944
-0.15,-0.22142989933490753,-0.049125488847494125,0.49030470848083496
-0.14,-0.22183173894882202,-0.0439654216170311,0.5093916654586792
-0.13,-0.22378431260585785,-0.03600110113620758,0.957878589630127
-0.12,-0.22561655938625336,-0.02752026356756687,1.005568265914917
-0.11,-0.22724968194961548,-0.0029724426567554474,2.608734607696533
-0.1,-0.22848039865493774,0.04784446209669113,5.2329816818237305
-0.09,-0.22904840111732483,0.12720640003681183,8.08625602722168
-0.08,-0.211540088057518,0.2634657025337219,12.008599281311035
-0.07,-0.21689340472221375,0.41283032298088074,15.84466552734375
-0.06,-0.19652126729488373,0.6130843758583069,18.4405517578125
-0.05,-0.14568555355072021,0.8692715764045715,21.103696823120117
-0.04,-0.0932580828666687,1.1495248079299927,23.623680114746094
-0.03,-0.06505228579044342,1.401827335357666,23.623929977416992
-0.02,-0.008929617702960968,1.7067949771881104,26.277488708496094
-0.01,0.04916183277964592,2.0372326374053955,28.950111389160156
0.0,0.10970403254032135,2.458974838256836,38.21678924560547
0.01,0.1363285928964615,2.84820556640625,38.92295837402344
0.02,0.1670234501361847,3.2605319023132324,41.23231506347656
0.03,0.2019513100385666,3.6955718994140625,43.503501892089844
0.04,0.24130114912986755,4.145786285400391,45.020809173583984
0.05,0.2851502597332001,4.596383571624756,45.05897903442383
0.06,0.33356356620788574,5.059674263000488,46.32817077636719
0.07,0.38666990399360657,5.536135673522949,47.64508056640625
0.08,0.44456082582473755,6.017846584320068,48.16992950439453
0.09,0.5068178772926331,6.512386322021484,49.45820999145508
0.1,0.5745502710342407,7.012707233428955,50.03078079223633
0.11,0.6470645070075989,7.525206089019775,51.25225830078125
0.12,0.724707305431366,8.040277481079102,51.509910583496094
0.13,0.8072951436042786,8.563703536987305,52.34967803955078
0.14,0.8953697085380554,9.092220306396484,52.855445861816406
0.15,0.9887241721153259,9.621973037719727,52.9795036315918
0.16,1.087304949760437,10.166769027709961,54.487266540527344
0.17,1.1914647817611694,10.713495254516602,54.678123474121094
0.18,1.301099181175232,11.264412879943848,55.097999572753906
0.19,1.4162547588348389,11.820667266845703,55.632408142089844
0.2,1.5370261669158936,12.382840156555176,56.22406005859375
0.21,1.6634160280227661,12.947580337524414,56.481712341308594
0.22,1.795594334602356,13.520172119140625,57.26422119140625
0.23,1.9334815740585327,14.092851638793945,57.27375793457031
0.24,2.0773611068725586,14.668095588684082,57.521873474121094
0.25,2.227047920227051,15.24774169921875,57.960845947265625
0.26,2.3825204372406006,15.828814506530762,58.10398864746094
0.27,2.543848991394043,16.412477493286133,58.36164093017578
0.28,2.710963726043701,17.000314712524414,58.781532287597656
0.29,2.883941173553467,17.58919334411621,58.886497497558594
0.3,3.0628533363342285,18.18123435974121,59.201416015625
0.31,3.247664213180542,18.773456573486328,59.220497131347656
0.32,3.43841814994812,19.374637603759766,60.117515563964844
0.33,3.635181427001953,19.980388641357422,60.57557678222656
0.34,3.837857961654663,20.5865421295166,60.623291015625
0.35,4.046577453613281,21.19468116760254,60.82368469238281
0.36,4.261406898498535,21.814634323120117,62.006996154785156
0.37,4.482693672180176,22.436344146728516,62.169219970703125
0.38,4.710120677947998,23.060104370117188,62.37916564941406
0.39,4.943565845489502,23.68791961669922,62.799049377441406
0.4,5.183258056640625,24.31685447692871,62.91355895996094
0.41,5.429429054260254,24.948945999145508,63.21893310546875
0.42,5.681959629058838,25.586862564086914,63.801048278808594
0.43,5.940881252288818,26.22535514831543,63.858299255371094
0.44,6.206220626831055,26.86605453491211,64.0777816772461
0.45,6.477965831756592,27.50751304626465,64.15412902832031
0.46,6.756109237670898,28.15437889099121,64.69806671142578
0.47,7.040728569030762,28.804100036621094,64.9843521118164
0.48,7.331823825836182,29.45380210876465,64.9843521118164
0.49,7.629698276519775,30.10428237915039,65.0416030883789
0.5,7.934068202972412,30.756845474243164,65.25154876708984
0.51,8.244915008544922,31.409563064575195,65.2706298828125
0.52,8.562249183654785,32.06453323364258,65.49966430664062
0.53,8.886137962341309,32.72026443481445,65.57600402832031
0.54,9.216561317443848,33.3768310546875,65.6618881225586
0.55,9.553512573242188,34.034698486328125,65.79548645019531
0.56,9.89699935913086,34.69623565673828,66.16765594482422
0.57,10.247171401977539,35.36410140991211,66.79747772216797
0.58,10.603853225708008,36.03229904174805,66.84519958496094
0.59,10.967254638671875,36.700809478759766,66.87382507324219
0.6,11.33747386932373,37.37000274658203,66.93108367919922
0.61,11.714603424072266,38.0434684753418,67.34142303466797
0.62,12.098403930664062,38.71877670288086,67.53227996826172
0.63,12.488967895507812,39.395050048828125,67.62770080566406
0.64,12.886270523071289,40.08231735229492,68.73466491699219
0.65,13.290419578552246,40.77080154418945,68.85872650146484
0.66,13.701380729675293,41.462066650390625,69.14500427246094
0.67,14.119376182556152,42.153533935546875,69.15455627441406
0.68,14.544252395629883,42.84572982788086,69.23089599609375
0.69,14.976062774658203,43.54135513305664,69.5744400024414
0.7,15.414825439453125,44.237548828125,69.6316909790039
0.71,15.860454559326172,44.9351692199707,69.78437805175781
0.72,16.31319236755371,45.63414764404297,69.90843963623047
0.73,16.77288818359375,46.337371826171875,70.33786010742188
0.74,17.23965072631836,47.042049407958984,70.48100280761719
0.75,17.71342658996582,47.74736022949219,70.54779815673828
0.76,18.19425392150879,48.45608901977539,70.89134216308594
0.77,18.682043075561523,49.164791107177734,70.90088653564453
0.78,19.176790237426758,49.874603271484375,71.02494049072266
0.79,19.678701400756836,50.585811614990234,71.15853881835938
0.8,20.187742233276367,51.297794342041016,71.23487854003906
0.81,20.704208374023438,52.01329803466797,71.55934143066406
0.82,21.227710723876953,52.729827880859375,71.67385864257812
0.83,21.758331298828125,53.44849395751953,71.8933334350586
0.84,22.296348571777344,54.16850662231445,72.00785827636719
0.85,22.841461181640625,54.88993453979492,72.16053009033203
0.86,23.39362335205078,55.61252975463867,72.29413604736328
0.87,23.952890396118164,56.33586120605469,72.38002014160156
0.88,24.51921844482422,57.06177520751953,72.6567611694336
0.89,25.092721939086914,57.78845977783203,72.74264526367188
0.9,25.674022674560547,58.52003479003906,73.1816177368164
0.91,26.262529373168945,59.25235366821289,73.26750183105469
0.92,26.858436584472656,59.985321044921875,73.32475280761719
0.93,27.461488723754883,60.71820068359375,73.33429718017578
0.94,28.071884155273438,61.45736312866211,73.96412658691406
0.95,28.689931869506836,62.19791793823242,74.0786361694336
0.96,29.315183639526367,62.938751220703125,74.12635040283203
0.97,29.94766616821289,63.68008041381836,74.19315338134766
0.98,30.58731460571289,64.4225845336914,74.33628845214844
0.99,31.234376907348633,65.17058563232422,74.88977813720703
1.0,31.88937759399414,65.91951751708984,74.93749237060547
1.01,32.55177307128906,66.67101287841797,75.2046890258789
1.02,33.22152328491211,67.42633819580078,75.6054916381836
1.03,33.899070739746094,68.18476104736328,75.89176940917969
1.04,34.58404541015625,68.94322204589844,75.91085815429688
1.05,35.276485443115234,69.70355224609375,76.11125946044922
1.06,35.97637939453125,70.46925354003906,76.66473388671875
1.07,36.68458557128906,71.23567962646484,76.67427825927734
1.08,37.40011978149414,72.00245666503906,76.74108123779297
1.09,38.123016357421875,72.7703628540039,76.88422393798828
1.1,38.85348129272461,73.5409164428711,77.16096496582031
1.11,39.59139633178711,74.31159973144531,77.19913482666016
1.12,40.3369255065918,75.08381652832031,77.36136627197266
1.13,41.090545654296875,75.85809326171875,77.53313446044922
1.14,41.85159683227539,76.63540649414062,77.86713409423828
1.15,42.620262145996094,77.4132308959961,77.93392944335938
1.16,43.39690399169922,78.19315338134766,78.12478637695312
1.17,44.18159103393555,78.97482299804688,78.27747344970703
1.18,44.97457504272461,79.75875854492188,78.45878601074219
1.19,45.774986267089844,80.54296875,78.52558898925781
1.2,46.58280563354492,81.3272476196289,78.57329559326172
1.21,47.39807891845703,82.11458587646484,78.91683959960938
1.22,48.22135543823242,82.90385437011719,79.09815216064453
1.23,49.053192138671875,83.69898223876953,79.62300872802734
1.24,49.89249801635742,84.49403381347656,79.66117858886719
1.25,50.739192962646484,85.28913879394531,79.71843719482422
1.26,51.593807220458984,86.08688354492188,79.98563385009766
1.27,52.45679473876953,86.88671112060547,80.15740203857422
1.28,53.32802200317383,87.68952178955078,80.43414306640625
1.29,54.20689010620117,88.49321746826172,80.5582046508789
1.3,55.09375,89.30076599121094,80.949462890625
1.31,55.989158630371094,90.11103057861328,81.17848205566406
1.32,56.89248275756836,90.92218017578125,81.28346252441406
1.33,57.80354309082031,91.7362289428711,81.60791015625
1.34,58.72210693359375,92.55255126953125,81.89419555664062
1.35,59.64834213256836,93.3686294555664,81.91327667236328
1.36,60.58325958251953,94.1864242553711,82.03733825683594
1.37,61.52657699584961,95.00841522216797,82.4381332397461
1.38,62.477386474609375,95.8299560546875,82.45722198486328
1.39,63.43742752075195,96.65535736083984,82.75304412841797
1.4,64.40545654296875,97.48185729980469,82.88665008544922
1.41,65.38097381591797,98.30938720703125,83.05841827392578
1.42,66.36459350585938,99.1379165649414,83.17292785644531
1.43,67.35582733154297,99.96956634521484,83.54510498046875
1.44,68.3549575805664,100.8021011352539,83.66915893554688
1.45,69.36302185058594,101.63784790039062,83.93635559082031
1.46,70.37908172607422,102.47499084472656,84.10812377929688
1.47,71.40251159667969,103.31327819824219,84.30852508544922
1.48,72.43547821044922,104.15258026123047,84.30852508544922
1.49,73.47740936279297,104.99799346923828,84.87154388427734
1.5,74.52704620361328,105.84286499023438,84.88109588623047
1.51,75.5854263305664,106.68848419189453,84.92880249023438
1.52,76.65130615234375,107.53377532958984,84.97652435302734
1.53,77.7265396118164,108.38259887695312,85.25325775146484
1.54,78.81056213378906,109.2326431274414,85.34868621826172
1.55,79.90189361572266,110.08540344238281,85.72086334228516
1.56,81.00150299072266,110.938720703125,85.79719543457031
1.57,82.10881805419922,111.79155731201172,85.81629180908203
1.58,83.22612762451172,112.6477279663086,86.0262222290039
1.59,84.35218048095703,113.5042495727539,86.0453109741211
1.6,85.48736572265625,114.36402130126953,86.32205963134766
1.61,86.63026428222656,115.22478485107422,86.49382781982422
1.62,87.78035736083984,116.0853500366211,86.5892562866211
1.63,88.94099426269531,116.94752502441406,86.5892562866211
1.64,90.10951232910156,117.81300354003906,86.98051452636719
1.65,91.28726196289062,118.68305206298828,87.39085388183594
1.66,92.47239685058594,119.55575561523438,87.76301574707031
1.67,93.66679382324219,120.42891693115234,87.76301574707031
1.68,94.86951446533203,121.30451202392578,88.03975677490234
1.69,96.08047485351562,122.18826293945312,88.89861297607422
1.7,97.30037689208984,123.07477569580078,89.16580963134766
1.71,98.52877807617188,123.9629135131836,89.3566665649414
1.72,99.76590728759766,124.85370635986328,89.63340759277344
1.73,101.01048278808594,125.74526977539062,89.82426452636719
1.74,102.26837158203125,126.6406021118164,89.85289001464844
1.75,103.53408813476562,127.53648376464844,89.99603271484375
1.76,104.8083267211914,128.4320526123047,89.99603271484375
1.77,106.0901870727539,129.32659912109375,89.99603271484375
1.78,107.37937927246094,130.21990966796875,89.99603271484375
1.79,108.67594146728516,131.11061096191406,89.85289001464844
1.8,109.98210906982422,131.9998779296875,89.65249633789062
1.81,111.2952651977539,132.8844757080078,89.32804107666016
1.82,112.62268829345703,133.7677459716797,88.77455139160156
1.83,113.95716094970703,134.64947509765625,88.7554702758789
1.84,115.29914855957031,135.5302276611328,88.7554702758789
1.85,116.64859008789062,136.40989685058594,88.74592590332031
1.86,118.00529479980469,137.28843688964844,88.74592590332031
1.87,119.37076568603516,138.1669921875,88.74592590332031
1.88,120.74340057373047,139.04437255859375,88.74592590332031
1.89,122.12924194335938,139.92576599121094,88.81272888183594
1.9,123.52388000488281,140.80801391601562,88.89861297607422
1.91,124.9249038696289,141.6886749267578,88.9177017211914
1.92,126.33328247070312,142.56886291503906,88.9749526977539
1.93,127.75617980957031,143.45433044433594,89.07992553710938
1.94,129.18553161621094,144.33920288085938,89.1944351196289
1.95,130.6223907470703,145.2252960205078,89.41392517089844
1.96,132.0666961669922,146.11134338378906,89.50935363769531
1.97,133.51922607421875,146.99807739257812,89.62386322021484
1.98,134.98239135742188,147.88612365722656,89.62386322021484
1.99,136.45291137695312,148.7731170654297,89.62386322021484
2.0,137.93124389648438,149.6593780517578,89.62386322021484
2.01,139.4178466796875,150.5458221435547,89.68112182617188
2.02,140.915283203125,151.43637084960938,89.94831848144531
2.03,142.41978454589844,152.3264923095703,90.0342025756836
2.04,143.9346466064453,153.21768188476562,90.0342025756836
2.05,145.45578002929688,154.10704040527344,90.0342025756836
2.06,146.9840087890625,154.99583435058594,90.10100555419922
2.07,148.51873779296875,155.88412475585938,90.21551513671875
2.08,150.06356811523438,156.7733154296875,90.21551513671875
2.09,151.61907958984375,157.6644744873047,90.28231811523438
2.1,153.18418884277344,158.55615234375,90.28231811523438
2.11,154.75601196289062,159.44635009765625,90.28231811523438
2.12,156.33702087402344,160.3364715576172,90.25369262695312
2.13,157.92581176757812,161.2266387939453,90.33003234863281
2.14,159.52392578125,162.1171417236328,90.33003234863281
2.15,161.12936401367188,163.00735473632812,90.40637969970703
2.16,162.7457275390625,163.89956665039062,90.46363067626953
2.17,164.36956787109375,164.7909393310547,90.4731674194336
2.18,165.9983367919922,165.68003845214844,90.51134490966797
2.19,167.6359100341797,166.56912231445312,90.51134490966797
2.2,169.28842163085938,167.46194458007812,90.4731674194336
2.21,170.9480743408203,168.35397338867188,90.51134490966797
2.22,172.61521911621094,169.24510192871094,90.51134490966797
2.23,174.2882843017578,170.13427734375,90.51134490966797
2.24,175.96694946289062,171.0213165283203,90.51134490966797
2.25,177.65447998046875,171.9095458984375,90.6258544921875
2.26,179.3549346923828,172.80050659179688,90.6258544921875
2.27,181.05947875976562,173.68833923339844,90.6258544921875
2.28,182.7686767578125,174.57489013671875,90.76899719238281
2.29,184.4940948486328,175.46632385253906,90.76899719238281
2.3,186.2240753173828,176.35353088378906,90.6258544921875
2.31,187.96421813964844,177.24163818359375,90.6258544921875
2.32,189.70849609375,178.1265411376953,90.60677337646484
2.33,191.45655822753906,179.0072784423828,90.51134490966797
2.34,193.2161102294922,179.8892364501953,90.45408630371094
2.35,194.99264526367188,180.77548217773438,90.34912109375
2.36,196.7727813720703,181.65745544433594,90.25369262695312
2.37,198.56146240234375,182.53892517089844,90.21551513671875
2.38,200.35633850097656,183.4185028076172,90.1868896484375
2.39,202.16249084472656,184.3000030517578,90.21551513671875
2.4,203.9721221923828,185.17820739746094,90.21551513671875
2.41,205.7869415283203,186.05392456054688,90.1868896484375
2.42,207.61590576171875,186.93263244628906,90.13917541503906
2.43,209.45614624023438,187.81268310546875,90.11054992675781
2.44,211.30770874023438,188.6943817138672,90.11054992675781
2.45,213.16595458984375,189.57461547851562,90.09146118164062
2.46,215.0349884033203,190.45594787597656,90.07238006591797
2.47,216.912841796875,191.33734130859375,90.07238006591797
2.48,218.79330444335938,192.2141876220703,89.99603271484375
