ts,height,velocity,acceleration
-0.75,-0.00614183908328414,-0.046774882823228836,-0.01094643585383892
-0.74,-0.006978178396821022,-0.047265101224184036,-0.010952364653348923
-0.73,-0.00948116835206747,-0.04947451874613762,-0.010985063388943672
-0.72,-0.0119111193343997,-0.05149289220571518,-0.0016730893403291702
-0.71,-0.014311079867184162,-0.05345967039465904,-0.0017034541815519333
-0.7,-0.016681157052516937,-0.055375490337610245,-0.0017330218106508255
-0.69,-0.010465173982083797,-0.04848213493824005,-0.010967103764414787
-0.68,-0.0043089608661830425,-0.04172084107995033,-0.010860113427042961
-0.67,0.0017878706566989422,-0.034996915608644485,-0.0014120284467935562
-0.66,-0.0007310358341783285,-0.037254806607961655,-0.0014469679445028305
-0.65,0.0017284889472648501,-0.03433931618928909,-0.0014013443142175674
-0.64,0.004166662693023682,-0.03138268366456032,0.00798565149307251
-0.63,0.006584325805306435,-0.028384465724229813,0.01737278699874878
-0.62,0.008980932645499706,-0.02562449686229229,-0.0012693721801042557
-0.61,0.011355496942996979,-0.02291545644402504,-0.0012269914150238037
-0.6,0.010300476104021072,-0.023689113557338715,0.008101891726255417
-0.59,0.009259482845664024,-0.02444038726389408,0.008088931441307068
-0.58,0.00303663220256567,-0.030637778341770172,-0.0013495702296495438
-0.57,-0.00311949010938406,-0.03670297935605049,-0.0014438051730394363
-0.56,-0.01259253267198801,-0.04613785073161125,-0.0015904959291219711
-0.55,-0.021964456886053085,-0.055464908480644226,-0.01107717677950859
-0.54,-0.027852246537804604,-0.06109244003891945,-0.011163080111145973
-0.53,-0.033674586564302444,-0.06659489125013351,-0.011247023940086365
-0.52,-0.04281517118215561,-0.0754740983247757,-0.011383535340428352
-0.51,-0.04847196862101555,-0.08065870404243469,-0.011462494730949402
-0.5,-0.05225052312016487,-0.08384734392166138,-0.011510360985994339
-0.49,-0.052518732845783234,-0.08337189257144928,-0.011501165106892586
-0.48,-0.05277679115533829,-0.08289076387882233,-0.011491881683468819
-0.47,-0.04962471127510071,-0.07888661324977875,-0.01142774149775505
-0.46,-0.0448731929063797,-0.07336150109767914,-0.020680665969848633
-0.45,-0.04016485437750816,-0.06793733686208725,-0.020592983812093735
-0.44,-0.03205482289195061,-0.05904923379421234,-0.02045137621462345
-0.43,-0.024023808538913727,-0.050333421677351,-0.02031247317790985
-0.42,-0.01951685920357704,-0.04535217210650444,-0.020231744274497032
-0.41,-0.015053411945700645,-0.04046665504574776,-0.020152518525719643
-0.4,-0.010652730241417885,-0.03569582477211952,-0.02007509209215641
-0.39,-0.006295434199273586,-0.031018469482660294,-0.019999133422970772
-0.38,-0.005427625961601734,-0.029998747631907463,-0.019980140030384064
-0.37,-0.004567599855363369,-0.02899743802845478,-0.019961437210440636
-0.36,-0.008864957839250565,-0.03334180638194084,-0.02002597786486149
-0.35,-0.013115495443344116,-0.037314608693122864,0.007938448339700699
-0.34,-0.015511277131736279,-0.03932812437415123,0.007905859500169754
-0.33,-0.017877720296382904,-0.041290782392024994,0.00787406601011753
-0.32,-0.02190624736249447,-0.044952940195798874,0.007815815508365631
-0.31,-0.026003453880548477,-0.04864884167909622,0.007757047191262245
-0.3,-0.035168010741472244,-0.057549454271793365,0.007617242634296417
-0.29,-0.039001718163490295,-0.06084441766142845,0.00756474956870079
-0.28,-0.042789191007614136,-0.06405798345804214,0.007513532415032387
-0.27,-0.046530582010746,-0.06719113886356354,0.007463574409484863
-0.26,-0.05697568878531456,-0.07732056081295013,-0.002036057412624359
-0.25,-0.06730612367391586,-0.08722811937332153,-0.002190016210079193
-0.24,-0.07236950099468231,-0.09158574789762497,-0.0022575296461582184
-0.23,-0.07737187296152115,-0.0958358570933342,-0.002323359251022339
-0.22,-0.0823134332895279,-0.09997974336147308,-0.002387523651123047
-0.21,-0.08719439804553986,-0.1040186956524849,-0.002450045198202133
-0.2,-0.09201496839523315,-0.1079540103673935,-0.00251094251871109
-0.19,-0.0967753604054451,-0.11178697645664215,-0.002570236101746559
-0.18,-0.09968247264623642,-0.11366358399391174,-0.0025990568101406097
-0.17,-0.10087429732084274,-0.1137465387582779,-0.0025999434292316437
-0.16,-0.10204252600669861,-0.11380423605442047,-0.00260043703019619
-0.15,-0.09984412789344788,-0.1103784367442131,-0.002546686679124832
-0.14,-0.0907473936676979,-0.09985096007585526,-0.002382362261414528
-0.13,-0.08173337578773499,-0.08942338824272156,0.007121121510863304
-0.12,-0.07280180603265762,-0.07918737828731537,0.007279403507709503
-0.11,-0.06395286321640015,-0.06914118677377701,0.0074347034096717834
-0.1,-0.06209653243422508,-0.06643148511648178,0.007475739344954491
-0.09,-0.06025121361017227,-0.06366785615682602,0.016859302297234535
-0.08,-0.06518035382032394,-0.06775496155023575,0.0354754664003849
-0.07,-0.0736040323972702,-0.07272030413150787,0.3062931299209595
-0.06,-0.08181554079055786,-0.0594775564968586,2.1093430519104004
-0.05,-0.09319520741701126,0.2847665548324585,35.7247428894043
-0.04,-0.09599559009075165,1.6447314023971558,137.29075622558594
-0.03,-0.10249713063240051,3.327068328857422,171.4944305419922
-0.02,-0.07838483154773712,5.03602933883667,172.7367706298828
-0.01,-0.05194392800331116,6.734549522399902,173.2220458984375
0.0,-0.00939115509390831,8.43541431427002,173.54852294921875
0.01,0.08349050581455231,10.178559303283691,174.31463623046875
0.02,0.193864643573761,11.936370849609375,175.78146362304688
0.03,0.32193756103515625,13.721179962158203,178.48155212402344
0.04,0.46795424818992615,15.531865119934082,181.06951904296875
0.05,0.6321695446968079,17.364593505859375,183.27442932128906
0.06,0.8148094415664673,19.2022762298584,183.7696075439453
0.07,1.0157616138458252,21.05022430419922,184.7973175048828
0.08,1.2354058027267456,22.919294357299805,186.9088134765625
0.09,1.473820686340332,24.80975341796875,189.04832458496094
0.1,1.731257677078247,26.72207260131836,191.23455810546875
0.11,2.008065700531006,28.675128936767578,195.3080291748047
0.12,2.3044893741607666,30.652000427246094,197.69046020507812
0.13,2.6206836700439453,32.63083267211914,197.8866729736328
0.14,2.9567179679870605,34.627777099609375,199.6991729736328
0.15,3.312725782394409,36.62621307373047,199.84866333007812
0.16,3.688830852508545,38.642494201660156,201.63314819335938
0.17,4.085071563720703,40.65885543823242,201.6425018310547
0.18,4.5014848709106445,42.67521667480469,201.6425018310547
0.19,4.938127040863037,44.69158935546875,201.6425018310547
0.2,5.394996643066406,46.707977294921875,201.6425018310547
0.21,5.871972560882568,48.7242546081543,201.63314819335938
0.22,6.369000434875488,50.7183837890625,199.4188995361328
0.23,6.885827541351318,52.69651412963867,197.82125854492188
0.24,7.4223952293396,54.6736946105957,197.72784423828125
0.25,7.978666305541992,56.642730712890625,196.91500854492188
0.26,8.55457592010498,58.61174011230469,196.91500854492188
0.27,9.150100708007812,60.580623626708984,196.90567016601562
0.28,9.765286445617676,62.54948806762695,196.90567016601562
0.29,10.400096893310547,64.5180435180664,196.8776397705078
0.3,11.05453872680664,66.48656463623047,196.8776397705078
0.31,11.7287015914917,68.45509338378906,196.8776397705078
0.32,12.422521591186523,70.42359924316406,196.8776397705078
0.33,13.136015892028809,72.39208984375,196.8776397705078
0.34,13.869126319885254,74.36053466796875,196.8776397705078
0.35,14.621868133544922,76.3260498046875,196.58799743652344
0.36,15.394169807434082,78.29216003417969,196.65341186523438
0.37,16.186058044433594,80.25541687011719,196.3731231689453
0.38,16.997547149658203,82.21538543701172,196.04611206054688
0.39,17.828567504882812,84.17530059814453,196.04611206054688
0.4,18.679176330566406,86.13519287109375,196.04611206054688
0.41,19.549270629882812,88.09481048583984,196.02743530273438
0.42,20.438844680786133,90.05433654785156,196.02743530273438
0.43,21.348045349121094,92.01703643798828,196.3450927734375
0.44,22.276790618896484,93.98124694824219,196.50392150878906
0.45,23.225069046020508,95.94536590576172,196.50392150878906
0.46,24.193084716796875,97.91325378417969,196.8776397705078
0.47,25.18072509765625,99.89095306396484,197.86798095703125
0.48,26.188011169433594,101.8697509765625,197.98944091796875
0.49,27.21494483947754,103.8515853881836,198.30709838867188
0.5,28.261554718017578,105.84037017822266,199.01715087890625
0.51,29.327999114990234,107.83961486816406,200.07290649414062
0.52,30.41444206237793,109.83995056152344,200.1850128173828
0.53,31.52077293395996,111.8404541015625,200.21302795410156
0.54,32.646942138671875,113.85112762451172,201.25009155273438
0.55,33.79318618774414,115.8677978515625,201.8573760986328
0.56,34.959388732910156,117.89134216308594,202.56744384765625
0.57,36.14567565917969,119.92013549804688,203.1093292236328
0.58,37.35212326049805,121.95819854736328,204.05294799804688
0.59,38.578941345214844,124.00486755371094,204.9218292236328
0.6,39.826053619384766,126.07136535644531,206.9305419921875
0.61,41.09365463256836,128.14801025390625,207.9676055908203
0.62,42.381866455078125,130.23313903808594,208.83648681640625
0.63,43.690696716308594,132.32546997070312,209.58392333984375
0.64,45.0202751159668,134.42990112304688,210.8171844482422
0.65,46.3707275390625,136.54185485839844,211.59263610839844
0.66,47.742000579833984,138.66607666015625,212.8539276123047
0.67,49.13421630859375,140.79556274414062,213.41448974609375
0.68,50.54735565185547,142.92979431152344,213.9283447265625
0.69,51.98173522949219,145.06678771972656,214.2179718017578
0.7,53.43708038330078,147.205322265625,214.4141845703125
0.71,54.91363525390625,149.34365844726562,214.4141845703125
0.72,56.41120529174805,151.4816131591797,214.4141845703125
0.73,57.93003463745117,153.6194305419922,214.4141845703125
0.74,59.469764709472656,155.7567596435547,214.4141845703125
0.75,61.03038787841797,157.89276123046875,214.33009338378906
0.76,62.61198806762695,160.02122497558594,213.61070251464844
0.77,64.21449279785156,162.14584350585938,213.2650146484375
0.78,65.83792877197266,164.26808166503906,213.05946350097656
0.79,67.48217010498047,166.38209533691406,212.27467346191406
0.8,69.14708709716797,168.49107360839844,211.81686401367188
0.81,70.83267211914062,170.59681701660156,211.5365753173828
0.82,72.53866577148438,172.69577026367188,210.91995239257812
0.83,74.2654037475586,174.78749084472656,210.21923828125
0.84,76.01243591308594,176.87469482421875,209.82684326171875
0.85,77.7799072265625,178.95791625976562,209.47181701660156
0.86,79.5677261352539,181.03497314453125,208.90188598632812
0.87,81.37572479248047,183.1072540283203,208.48147583007812
0.88,83.20387268066406,185.1759796142578,208.1824951171875
0.89,85.0522689819336,187.24342346191406,208.09840393066406
0.9,86.92072296142578,189.30728149414062,207.7994384765625
0.91,88.80953979492188,191.36927795410156,207.64060974121094
0.92,90.71813201904297,193.4296875,207.56585693359375
0.93,92.64661407470703,195.4767608642578,206.2952423095703
0.94,94.59521484375,197.51809692382812,205.7533416748047
0.95,96.5633544921875,199.55606079101562,205.5010986328125
0.96,98.55099487304688,201.5896453857422,205.1460723876953
0.97,100.5580825805664,203.61827087402344,204.7349853515625
0.98,102.58436584472656,205.64266967773438,204.41732788085938
0.99,104.6299057006836,207.6600799560547,203.81004333496094
1.0,106.69474792480469,209.6749725341797,203.64186096191406
1.01,108.7785415649414,211.6877899169922,203.54843139648438
1.02,110.88115692138672,213.6927490234375,202.8850860595703
1.03,113.00249481201172,215.69003295898438,202.2404327392578
1.04,115.14318084716797,217.68478393554688,202.0442352294922
1.05,117.30247497558594,219.67677307128906,201.89474487304688
1.06,119.48027801513672,221.66102600097656,201.25009155273438
1.07,121.6767807006836,223.64096069335938,200.923095703125
1.08,123.8914794921875,225.61865234375,200.8483428955078
1.09,126.12430572509766,227.5944366455078,200.81097412109375
1.1,128.37515258789062,229.56263732910156,200.21302795410156
1.11,130.64390563964844,231.52780151367188,200.07290649414062
1.12,132.9304656982422,233.49053955078125,199.99815368652344
1.13,135.2347412109375,235.44781494140625,199.6244354248047
1.14,137.55661010742188,237.40106201171875,199.40020751953125
1.15,139.89598083496094,239.35105895996094,199.2600555419922
1.16,142.2527618408203,241.2987823486328,199.22268676757812
1.17,144.6268310546875,243.23838806152344,198.60606384277344
1.18,147.01809692382812,245.17501831054688,198.50328063964844
1.19,149.42666625976562,247.1071014404297,198.2323455810547
1.2,151.8525390625,249.03436279296875,197.9240264892578
1.21,154.2953338623047,250.95648193359375,197.61572265625
1.22,156.75531005859375,252.87628173828125,197.55967712402344
1.23,159.23187255859375,254.78887939453125,197.0644989013672
1.24,161.72715759277344,256.6962585449219,196.5599822998047
1.25,164.2393341064453,258.6016845703125,196.55064392089844
1.26,166.7684326171875,260.50396728515625,196.41983032226562
1.27,169.3155517578125,262.40472412109375,196.33575439453125
1.28,171.87948608398438,264.3035583496094,196.326416015625
1.29,174.45974731445312,266.1999206542969,196.30772399902344
1.3,177.05723571777344,268.09454345703125,196.27035522460938
1.31,179.67127990722656,269.9869079589844,196.24232482910156
1.32,182.3033447265625,271.8727111816406,195.64437866210938
1.33,184.9513397216797,273.7560119628906,195.63504028320312
1.34,187.61505126953125,275.63568115234375,195.53225708007812
1.35,190.2942657470703,277.5120849609375,195.47621154785156
1.36,192.9887237548828,279.3831481933594,195.23329162597656
1.37,195.6986846923828,281.2495422363281,195.0277557373047
1.38,198.42393493652344,283.1129455566406,194.9997100830078
1.39,201.1640167236328,284.9728698730469,194.9623565673828
1.4,203.91871643066406,286.8288269042969,194.88760375976562
1.41,206.68907165527344,288.68170166015625,194.80352783203125
1.42,209.47377014160156,290.53045654296875,194.72877502441406
1.43,212.27281188964844,292.3756103515625,194.7007598876953
1.44,215.08595275878906,294.2154541015625,194.51390075683594
1.45,217.9149169921875,296.05303955078125,194.4765167236328
1.46,220.75772094726562,297.8857727050781,194.34573364257812
1.47,223.61572265625,299.7137451171875,194.10281372070312
1.48,226.48898315429688,301.5390319824219,194.0561065673828
1.49,229.37718200683594,303.3612060546875,193.99069213867188
1.5,232.28089904785156,305.1775817871094,193.59828186035156
1.51,235.20030212402344,306.9917907714844,193.55157470703125
1.52,238.13389587402344,308.8025817871094,193.50486755371094
1.53,241.0822296142578,310.6100158691406,193.41143798828125
1.54,244.046142578125,312.412353515625,193.06576538085938
1.55,247.0235137939453,314.2099914550781,192.93495178222656
1.56,250.01480102539062,316.0003967285156,192.5051727294922
1.57,253.0184783935547,317.782958984375,192.1314697265625
1.58,256.0341796875,319.5605163574219,192.06607055664062
1.59,259.0624084472656,321.3310546875,191.7484130859375
1.6,262.10296630859375,323.0928649902344,191.2625732421875
1.61,265.1548156738281,324.8497009277344,191.23455810546875
1.62,268.2177429199219,326.598876953125,190.94493103027344
1.63,271.292236328125,328.3421936035156,190.78610229492188
1.64,274.3774719238281,330.0804748535156,190.7674102783203
1.65,277.4742736816406,331.8117370605469,190.477783203125
1.66,280.5813903808594,333.53143310546875,189.8237762451172
1.67,283.7217712402344,335.254150390625,188.75868225097656
1.68,286.8892822265625,336.95245361328125,185.45132446289062
1.69,290.0810241699219,338.5961608886719,179.33175659179688
1.7,293.29150390625,340.1737365722656,172.4553985595703
1.71,296.5155944824219,341.6809997558594,165.51365661621094
1.72,299.7529296875,343.13299560546875,160.05743408203125
1.73,303.00238037109375,344.5254211425781,154.21815490722656
1.74,306.2672424316406,345.84613037109375,146.8466339111328
1.75,309.5598449707031,347.1118469238281,140.12911987304688
1.76,312.8921203613281,348.3322448730469,133.41160583496094
1.77,316.2566833496094,349.4360656738281,120.09803771972656
1.78,319.642333984375,350.37384033203125,102.60820770263672
1.79,323.0446472167969,351.1308898925781,83.8664321899414
1.8,326.4537658691406,351.6452331542969,59.537628173828125
1.81,329.8648986816406,351.9222717285156,35.928218841552734
1.82,333.274169921875,352.0152282714844,17.775053024291992
1.83,336.6768798828125,351.96038818359375,3.480480194091797
1.84,340.07293701171875,351.786376953125,-8.048605918884277
1.85,343.4597473144531,351.5134582519531,-17.43817710876465
1.86,346.83660888671875,351.111328125,-29.8922061920166
1.87,350.2017822265625,350.6688537597656,-33.40512466430664
1.88,353.5548400878906,350.2005920410156,-35.451210021972656
1.89,356.8953857421875,349.7111511230469,-37.0301513671875
1.9,360.22381591796875,349.2022399902344,-38.48763656616211
1.91,363.5382385253906,348.65875244140625,-41.33721160888672
1.92,366.8385925292969,348.10614013671875,-41.65486526489258
1.93,370.12518310546875,347.54443359375,-42.00989532470703
1.94,373.3976745605469,346.97613525390625,-42.0939826965332
1.95,376.6558837890625,346.40203857421875,-42.0939826965332
1.96,379.89990234375,345.82232666015625,-42.0939826965332
1.97,383.12921142578125,345.2366638183594,-42.0939826965332
1.98,386.3442687988281,344.6454772949219,-42.0939826965332
1.99,389.544189453125,344.0510559082031,-41.81369400024414
2.0,392.7300720214844,343.4525146484375,-41.70158004760742
2.01,395.9027404785156,342.85198974609375,-41.43998336791992
2.02,399.0601501464844,342.24615478515625,-41.37458038330078
2.03,402.2100524902344,341.64215087890625,-41.150352478027344
2.04,405.3519592285156,341.04058837890625,-40.83269500732422
2.05,408.48321533203125,340.4375,-40.7205810546875
2.06,411.5999755859375,339.82965087890625,-40.66452407836914
2.07,414.7066345214844,339.2202453613281,-40.60846710205078
2.08,417.8084716796875,338.6126708984375,-40.58043670654297
2.09,420.896728515625,338.00152587890625,-40.477664947509766
2.1,423.9754333496094,337.388671875,-40.477664947509766
2.11,427.0389709472656,336.7710876464844,-40.39358139038086
2.12,430.0956115722656,336.1537780761719,-40.384239196777344
2.13,433.1426696777344,335.5350036621094,-40.36555099487305
2.14,436.1770935058594,334.91363525390625,-40.25343704223633
2.15,439.19781494140625,334.2884216308594,-40.19738006591797
2.16,442.2094421386719,333.6623840332031,-40.160011291503906
2.17,445.21966552734375,333.0412902832031,-40.06657791137695
2.18,448.2191162109375,332.4189147949219,-39.9544677734375
2.19,451.2153625488281,331.79931640625,-39.9544677734375
2.2,454.2015075683594,331.1778869628906,-39.94512176513672
2.21,457.1703186035156,330.5498962402344,-39.92643737792969
2.22,460.1216125488281,329.91510009765625,-39.92643737792969
2.23,463.0552062988281,329.2732849121094,-39.94512176513672
2.24,465.9707946777344,328.62335205078125,-40.06657791137695
2.25,468.84893798828125,327.9532470703125,-40.1132926940918
2.26,471.67724609375,327.2554931640625,-40.1132926940918
2.27,474.48626708984375,326.5505676269531,-40.1132926940918
2.28,477.2758483886719,325.8401184082031,-39.94512176513672
2.29,480.0457763671875,325.1236572265625,-39.823665618896484
2.3,482.7958679199219,324.40142822265625,-39.67417907714844
2.31,485.5373229980469,323.68084716796875,-39.515350341796875
2.32,488.2587890625,322.9547424316406,-39.33783721923828
2.33,490.9601135253906,322.2392272949219,-37.544010162353516
2.34,493.6412353515625,321.520263671875,-37.151607513427734
2.35,496.30206298828125,320.80523681640625,-36.021121978759766
2.36,498.91680908203125,320.0740966796875,-35.24566650390625
2.37,501.4193115234375,319.2771301269531,-35.24566650390625
2.38,503.8987731933594,318.4720764160156,-35.22697830200195
2.39,506.3558044433594,317.6592712402344,-35.22697830200195
2.4,508.7902526855469,316.84027099609375,-35.06814956665039
2.41,511.2019348144531,316.01470947265625,-34.946693420410156
2.42,513.5914306640625,315.18267822265625,-34.86260986328125
2.43,515.9847412109375,314.3596496582031,-34.86260986328125
2.44,518.3683471679688,313.5379943847656,-34.76918029785156
2.45,520.7555541992188,312.72589111328125,-34.694435119628906
