ts,altitude[m],velocity[m/s],latitude,longitude
0.0,0,8,39.39,-8.2895
0.1,1,17,39.39,-8.2895
0.2,3,25,39.39,-8.2895
0.3,6,34,39.39,-8.2895
0.4,10,43,39.39,-8.2895
0.5,15,53,39.39,-8.2895
0.7,28,70,39.39,-8.2895
0.8,35,79,39.39,-8.2895
0.9,44,88,39.39,-8.2895
1.0,53,97,39.39,-8.2895
1.1,63,106,39.39,-8.2895
1.2,74,116,39.39,-8.2895
1.4,100,134,39.39,-8.2896
1.5,114,144,39.39,-8.2896
1.6,130,153,39.39,-8.2896
1.7,146,162,39.39,-8.2896
2.0,203,189,39.39,-8.2896
2.1,224,198,39.39,-8.2896
2.2,246,206,39.39,-8.2896
2.3,269,215,39.39,-8.2896
2.4,293,223,39.39,-8.2896
2.6,346,239,39.39,-8.2896
2.7,373,247,39.39,-8.2896
2.8,402,254,39.39,-8.2896
2.9,432,261,39.39,-8.2896
3.0,462,268,39.39,-8.2896
3.1,493,275,39.3901,-8.2898
3.3,558,287,39.3901,-8.2898
3.4,591,293,39.3901,-8.2898
3.5,625,299,39.3901,-8.2898
3.6,660,305,39.3901,-8.2898
3.7,694,310,39.3901,-8.2898
3.8,729,314,39.3901,-8.2898
4.0,798,316,39.3901,-8.2899
4.4,920,305,39.3901,-8.2899
7.0,1477,203,39.3894,-8.2904
7.4,1544,190,39.3894,-8.2904
8.1,1653,171,39.3885,-8.2902
8.2,1668,168,39.3885,-8.2902
8.4,1698,163,39.3885,-8.2902
8.5,1713,161,39.3885,-8.2902
8.6,1727,158,39.3885,-8.2902
8.7,1742,156,39.3885,-8.2902
8.8,1756,154,39.3885,-8.2902
8.9,1770,152,39.3881,-8.2903
9.0,1784,150,39.3881,-8.2903
9.3,1826,144,39.3881,-8.2903
9.4,1840,142,39.3881,-8.2903
9.5,1853,140,39.3881,-8.2903
9.6,1867,138,39.3881,-8.2903
9.7,1880,136,39.3881,-8.2903
9.8,1893,135,39.3881,-8.2903
10.1,1932,130,39.3877,-8.2904
10.2,1945,128,39.3877,-8.2904
10.3,1958,127,39.3877,-8.2905
10.4,1971,125,39.3877,-8.2905
10.5,1983,124,39.3876,-8.2905
10.6,1996,122,39.3876,-8.2905
10.9,2032,118,39.3874,-8.2906
11.1,2057,115,39.3873,-8.2907
11.2,2068,114,39.3873,-8.2907
11.3,2080,113,39.3873,-8.2907
11.4,2092,112,39.3873,-8.2907
11.5,2104,110,39.3872,-8.2907
11.8,2138,107,39.3871,-8.2908
12.1,2172,103,39.3869,-8.2909
12.2,2183,102,39.3869,-8.2909
12.3,2194,101,39.3869,-8.2909
12.4,2204,100,39.3869,-8.2909
12.5,2215,99,39.3868,-8.2909
12.6,2226,98,39.3868,-8.2909
12.8,2247,96,39.3867,-8.2909
13.4,2308,90,39.3865,-8.291
13.9,2356,86,39.3863,-8.2911
14.4,2402,81,39.3862,-8.2911
14.8,2437,77,39.3861,-8.2912
15.2,2470,74,39.386,-8.2912
15.4,2485,72,39.3859,-8.2912
15.6,2501,70,39.3859,-8.2912
15.7,2508,69,39.3859,-8.2912
15.8,2516,68,39.3859,-8.2912
15.9,2523,67,39.3859,-8.2912
16.0,2530,66,39.3859,-8.2912
16.3,2551,64,39.3856,-8.2913
16.4,2558,63,39.3856,-8.2913
17.7,2637,51,39.3855,-8.2912
18.0,2652,48,39.3855,-8.2912
18.1,2657,47,39.3855,-8.2912
18.2,2662,46,39.3855,-8.2912
18.3,2667,45,39.3855,-8.2912
18.5,2676,43,39.3855,-8.2912
18.8,2690,41,39.3855,-8.2912
18.9,2694,40,39.3855,-8.2912
19.0,2698,39,39.3855,-8.2912
19.1,2702,38,39.3855,-8.2912
19.2,2706,37,39.3855,-8.2912
19.3,2710,36,39.3855,-8.2912
19.6,2720,33,39.3855,-8.2912
19.7,2724,32,39.3855,-8.2912
19.8,2727,31,39.3855,-8.2912
19.9,2730,30,39.3855,-8.2912
20.0,2733,29,39.3855,-8.2912
20.4,2745,25,39.3855,-8.2912
20.5,2747,24,39.3855,-8.2912
20.8,2755,22,39.3855,-8.2912
21.1,2762,19,39.3855,-8.2912
21.4,2767,17,39.3855,-8.2912
21.9,2775,12,39.3855,-8.2912
22.0,2777,11,39.3855,-8.2912
22.3,2780,9,39.3855,-8.2912
22.4,2781,8,39.3855,-8.2912
22.5,2782,7,39.3855,-8.2912
22.6,2782,6,39.3855,-8.2912
22.7,2783,5,39.3842,-8.2913
22.9,2784,3,39.3841,-8.2913
23.0,2784,2,39.3841,-8.2913
23.1,2785,1,39.3841,-8.2913
23.2,2785,0,39.3841,-8.2913
23.3,2785,0,39.3841,-8.2913
23.4,2784,-2,39.3841,-8.2913
23.7,2787,0,39.3841,-8.2913
23.8,2789,2,39.3841,-8.2913
24.0,2785,-2,39.3841,-8.2913
24.1,2782,-4,39.3841,-8.2913
24.2,2781,-5,39.3841,-8.2913
24.3,2779,-6,39.3841,-8.2913
24.6,2777,-6,39.3841,-8.2913
24.7,2777,-6,39.3841,-8.2913
24.8,2776,-6,39.3841,-8.2913
24.9,2776,-6,39.3841,-8.2913
25.0,2775,-6,39.3841,-8.2913
25.2,2773,-6,39.3841,-8.2913
25.4,2769,-9,39.3841,-8.2913
25.8,2758,-15,39.3841,-8.2913
26.2,2748,-19,39.3841,-8.2913
26.5,2740,-21,39.3841,-8.2913
26.9,2728,-23,39.3841,-8.2913
27.1,2723,-24,39.3841,-8.2913
27.2,2720,-25,39.3841,-8.2913
27.4,2713,-26,39.3841,-8.2913
27.6,2705,-28,39.3841,-8.2913
27.7,2702,-29,39.3841,-8.2913
27.8,2698,-30,39.3841,-8.2913
28.1,2685,-33,39.3841,-8.2913
28.2,2681,-34,39.3841,-8.2913
28.3,2677,-34,39.3841,-8.2913
28.4,2673,-35,39.3841,-8.2913
28.5,2669,-35,39.3841,-8.2913
28.6,2665,-36,39.3841,-8.2913
28.8,2656,-38,39.3841,-8.2913
29.0,2647,-39,39.3841,-8.2913
29.5,2621,-44,39.3841,-8.2913
29.9,2600,-47,39.3841,-8.2913
30.0,2594,-48,39.3841,-8.2913
30.5,2568,-49,39.3841,-8.2913
30.8,2552,-51,39.3841,-8.2913
31.1,2534,-53,39.3841,-8.2913
31.2,2528,-54,39.3841,-8.2913
31.3,2522,-54,39.3841,-8.2913
31.4,2517,-54,39.3841,-8.2913
31.6,2506,-54,39.3841,-8.2913
31.7,2500,-54,39.3841,-8.2913
31.9,2487,-56,39.3841,-8.2913
32.2,2465,-60,39.3841,-8.2913
32.3,2458,-62,39.3841,-8.2913
32.4,2450,-63,39.3841,-8.2913
32.5,2443,-64,39.3841,-8.2913
32.6,2436,-64,39.3841,-8.2913
32.9,2415,-66,39.3828,-8.29
33.0,2408,-67,39.3828,-8.29
33.1,2400,-67,39.3828,-8.29
33.2,2393,-68,39.3828,-8.29
33.3,2386,-68,39.3828,-8.2899
33.4,2380,-67,39.3828,-8.2899
33.8,2353,-67,39.3828,-8.2899
34.0,2339,-68,39.3828,-8.2898
34.1,2332,-68,39.3828,-8.2898
34.2,2324,-69,39.3828,-8.2898
34.3,2317,-69,39.3828,-8.2897
34.4,2309,-70,39.3828,-8.2897
34.6,2294,-71,39.3828,-8.2897
34.7,2287,-71,39.3828,-8.2897
34.8,2279,-71,39.3828,-8.2897
34.9,2272,-72,39.3828,-8.2896
35.0,2265,-72,39.3828,-8.2896
35.1,2257,-72,39.3828,-8.2896
35.2,2250,-72,39.3828,-8.2896
35.3,2243,-72,39.3828,-8.2895
35.5,2228,-72,39.3828,-8.2895
35.6,2220,-73,39.3828,-8.2895
36.4,2161,-73,39.3827,-8.2893
36.9,2123,-74,39.3827,-8.2892
37.5,2077,-75,39.3827,-8.2891
37.8,2055,-75,39.3827,-8.289
38.4,2011,-74,39.3827,-8.2888
38.6,1996,-74,39.3828,-8.2888
38.7,1989,-73,39.3827,-8.2888
38.8,1983,-72,39.3827,-8.2888
38.9,1977,-71,39.3827,-8.2887
39.0,1970,-70,39.3827,-8.2887
39.1,1963,-70,39.3827,-8.2887
39.3,1951,-68,39.3828,-8.2886
39.9,1928,-54,39.3828,-8.2885
40.5,1909,-43,39.3828,-8.2883
40.9,1885,-50,39.3828,-8.2882
41.5,1827,-71,39.3828,-8.2881
41.6,1816,-74,39.3828,-8.2881
41.7,1806,-77,39.3828,-8.2881
42.0,1778,-82,39.3828,-8.288
42.1,1768,-83,39.3829,-8.288
42.2,1759,-84,39.3829,-8.288
42.3,1751,-83,39.3829,-8.288
42.4,1742,-84,39.3829,-8.288
42.5,1734,-83,39.3829,-8.2879
43.0,1705,-73,39.3829,-8.2879
43.1,1696,-74,39.383,-8.2878
43.2,1687,-76,39.383,-8.2878
43.3,1679,-77,39.383,-8.2878
43.4,1671,-77,39.383,-8.2878
43.6,1655,-77,39.383,-8.2877
43.7,1647,-77,39.383,-8.2877
43.9,1632,-77,39.383,-8.2877
44.0,1624,-77,39.383,-8.2877
44.1,1616,-78,39.383,-8.2877
44.3,1600,-78,39.383,-8.2877
44.4,1592,-78,39.383,-8.2877
44.5,1585,-77,39.3831,-8.2876
44.8,1564,-76,39.3831,-8.2876
44.9,1557,-75,39.3831,-8.2875
45.0,1550,-74,39.3831,-8.2875
45.1,1544,-73,39.3831,-8.2874
45.2,1537,-73,39.3831,-8.2874
45.3,1530,-72,39.3831,-8.2874
45.4,1522,-72,39.3831,-8.2874
45.6,1508,-72,39.3832,-8.2873
45.7,1500,-73,39.3832,-8.2873
45.9,1484,-74,39.3832,-8.2873
46.0,1476,-75,39.3832,-8.2873
46.2,1460,-75,39.3832,-8.2873
46.3,1452,-75,39.3832,-8.2872
46.5,1437,-75,39.3832,-8.2871
46.6,1430,-75,39.3832,-8.2871
46.7,1422,-75,39.3833,-8.2871
46.8,1414,-76,39.3833,-8.2871
46.9,1407,-75,39.3833,-8.2871
49.2,1235,-74,39.3835,-8.2867
49.6,1205,-74,39.3835,-8.2866
50.2,1158,-76,39.3835,-8.2865
50.6,1126,-76,39.3836,-8.2864
51.1,1090,-74,39.3836,-8.2863
51.3,1076,-73,39.3837,-8.2862
51.4,1069,-73,39.3837,-8.2862
51.5,1061,-74,39.3837,-8.2862
52.0,1022,-75,39.3837,-8.2861
52.3,999,-76,39.3837,-8.2861
52.4,991,-76,39.3837,-8.2861
52.5,984,-76,39.3838,-8.286
52.6,976,-75,39.3838,-8.286
52.7,969,-75,39.3838,-8.286
53.0,947,-74,39.3838,-8.2859
53.1,940,-74,39.3838,-8.2859
53.2,932,-74,39.3838,-8.2859
53.4,918,-73,39.3838,-8.2859
53.5,911,-73,39.3838,-8.2859
53.7,896,-73,39.3839,-8.2858
53.8,888,-74,39.3839,-8.2858
53.9,880,-75,39.3839,-8.2857
54.0,872,-75,39.3839,-8.2857
54.1,864,-75,39.3839,-8.2857
54.2,857,-76,39.3839,-8.2857
54.5,833,-76,39.384,-8.2856
54.6,825,-76,39.384,-8.2856
54.7,818,-76,39.384,-8.2856
54.8,810,-76,39.384,-8.2856
54.9,803,-76,39.384,-8.2856
55.1,788,-75,39.384,-8.2855
55.2,781,-75,39.384,-8.2855
55.3,773,-75,39.3841,-8.2855
55.4,766,-75,39.3841,-8.2855
55.5,759,-74,39.3841,-8.2855
55.7,743,-75,39.3841,-8.2854
55.8,736,-75,39.3841,-8.2854
55.9,728,-75,39.3841,-8.2854
56.0,721,-75,39.3841,-8.2854
56.2,705,-75,39.3841,-8.2854
56.6,675,-75,39.3842,-8.2853
56.7,668,-75,39.3842,-8.2853
56.8,660,-75,39.3842,-8.2853
56.9,653,-75,39.3842,-8.2853
57.0,645,-75,39.3842,-8.2852
57.1,638,-74,39.3842,-8.2852
57.3,624,-74,39.3842,-8.2852
57.4,616,-74,39.3842,-8.2852
57.5,609,-74,39.3843,-8.2851
57.6,601,-74,39.3843,-8.2851
57.7,593,-75,39.3843,-8.2851
57.8,585,-75,39.3843,-8.2851
58.0,570,-75,39.3843,-8.2851
58.1,562,-75,39.3843,-8.2851
58.2,555,-75,39.3843,-8.2851
58.3,547,-75,39.3843,-8.285
58.4,540,-75,39.3843,-8.285
58.6,526,-74,39.3843,-8.285
58.8,511,-74,39.3844,-8.285
58.9,504,-73,39.3844,-8.285
59.0,497,-73,39.3844,-8.2849
59.1,490,-73,39.3844,-8.2849
59.2,482,-73,39.3844,-8.2849
59.3,475,-73,39.3844,-8.2849
59.4,467,-74,39.3844,-8.2849
59.6,452,-74,39.3844,-8.2848
59.7,444,-75,39.3844,-8.2848
59.8,436,-75,39.3844,-8.2848
59.9,428,-75,39.3845,-8.2848
60.0,421,-75,39.3845,-8.2848
60.3,399,-74,39.3845,-8.2847
60.4,391,-75,39.3845,-8.2847
60.5,384,-74,39.3845,-8.2847
60.6,377,-74,39.3845,-8.2847
60.7,370,-74,39.3845,-8.2847
61.0,348,-73,39.3845,-8.2846
61.1,341,-73,39.3846,-8.2846
61.2,333,-73,39.3846,-8.2846
61.3,326,-73,39.3845,-8.2846
61.4,318,-74,39.3845,-8.2846
62.2,257,-75,39.3846,-8.2845
62.3,250,-74,39.3846,-8.2844
62.4,243,-74,39.3846,-8.2844
62.5,236,-74,39.3846,-8.2844
62.6,229,-73,39.3846,-8.2844
62.8,215,-73,39.3846,-8.2844
62.9,208,-73,39.3846,-8.2844
63.1,193,-73,39.3846,-8.2844
63.2,185,-73,39.3846,-8.2844
63.3,177,-74,39.3846,-8.2844
63.4,170,-74,39.3846,-8.2844
63.5,163,-73,39.3846,-8.2844
63.6,155,-74,39.3846,-8.2844
64.0,126,-73,39.3847,-8.2843
64.1,118,-73,39.3847,-8.2843
64.2,111,-73,39.3847,-8.2843
64.3,104,-73,39.3848,-8.2843
64.4,97,-73,39.3848,-8.2843
64.5,90,-72,39.3848,-8.2843
