ts,altitude[m],velocity[m/s],latitude,longitude
0.0,4,29,39.3899,-8.2897
0.1,7,39,39.3899,-8.2897
0.2,12,48,39.3899,-8.2897
0.3,17,57,39.3899,-8.2897
0.4,23,66,39.3899,-8.2897
0.5,30,75,39.3899,-8.2897
0.7,47,94,39.3899,-8.2897
0.9,68,112,39.3899,-8.2897
1.0,80,122,39.3899,-8.2897
1.1,92,131,39.3899,-8.2897
1.2,106,141,39.3899,-8.2897
1.4,135,159,39.3899,-8.2897
1.5,152,168,39.3899,-8.2897
1.6,169,177,39.3899,-8.2897
1.7,186,185,39.3899,-8.2897
1.8,205,193,39.3899,-8.2897
2.0,243,207,39.3899,-8.2897
2.1,263,214,39.3899,-8.2897
2.2,283,220,39.3899,-8.2897
2.3,304,227,39.3899,-8.2897
2.4,325,232,39.3899,-8.2897
2.6,369,242,39.3899,-8.2897
2.7,391,247,39.3899,-8.2897
2.8,414,252,39.3899,-8.2897
2.9,437,256,39.3899,-8.2897
3.0,459,259,39.3899,-8.2897
3.2,505,266,39.3899,-8.2897
3.3,527,268,39.3899,-8.2897
3.4,550,270,39.3899,-8.2897
3.5,573,272,39.3899,-8.2897
3.6,596,270,39.3899,-8.2897
3.7,620,267,39.3899,-8.2897
3.9,667,259,39.3899,-8.2897
4.0,692,255,39.3899,-8.2897
4.1,713,250,39.3899,-8.2897
4.2,735,246,39.3899,-8.2897
4.3,759,243,39.3899,-8.2897
4.5,804,236,39.3899,-8.2897
4.6,827,233,39.3899,-8.2897
4.7,850,230,39.3899,-8.2897
4.8,873,228,39.3899,-8.2897
4.9,897,226,39.3899,-8.2897
5.0,920,224,39.3899,-8.2897
5.2,967,220,39.3899,-8.2897
5.4,1015,216,39.3899,-8.2897
5.5,1038,215,39.3899,-8.2897
5.6,1062,213,39.3899,-8.2897
5.9,1131,208,39.3899,-8.2897
6.0,1155,207,39.3899,-8.2897
6.1,1178,206,39.3899,-8.2897
6.2,1201,204,39.3899,-8.2897
6.3,1224,203,39.3899,-8.2897
6.6,1292,199,39.3899,-8.2897
6.7,1314,198,39.3899,-8.2897
6.8,1336,196,39.3899,-8.2897
6.9,1358,195,39.3899,-8.2897
7.0,1379,194,39.3899,-8.2897
7.1,1401,192,39.3899,-8.2897
7.3,1443,190,39.3899,-8.2897
7.4,1463,188,39.3899,-8.2897
7.5,1484,187,39.3899,-8.2897
7.6,1504,186,39.3899,-8.2897
7.7,1525,184,39.3899,-8.2897
7.8,1545,183,39.3899,-8.2897
7.9,1565,182,39.3899,-8.2897
8.0,1584,181,39.3899,-8.2897
8.2,1624,178,39.3899,-8.2897
8.3,1643,177,39.3899,-8.2897
8.4,1663,176,39.3899,-8.2897
8.5,1682,175,39.3899,-8.2897
8.8,1739,171,39.3899,-8.2897
9.0,1776,169,39.3899,-8.2897
9.1,1794,167,39.3899,-8.2897
9.2,1811,166,39.3899,-8.2897
9.3,1828,165,39.3899,-8.2897
9.4,1845,163,39.3899,-8.2897
9.6,1878,160,39.3899,-8.2897
9.8,1911,157,39.3899,-8.2897
9.9,1927,156,39.3899,-8.2897
10.1,1958,153,39.3899,-8.2897
10.2,1973,151,39.3899,-8.2897
10.3,1989,150,39.3899,-8.2897
10.6,2034,145,39.3899,-8.2897
10.7,2048,144,39.3899,-8.2897
10.8,2063,143,39.3899,-8.2897
10.9,2077,141,39.3899,-8.2897
11.1,2105,138,39.3899,-8.2897
11.6,2175,132,39.3899,-8.2897
11.9,2216,128,39.3899,-8.2897
12.4,2280,122,39.3899,-8.2897
12.8,2327,117,39.3899,-8.2897
12.9,2339,115,39.3899,-8.2897
13.0,2350,114,39.3899,-8.2897
13.1,2361,112,39.3899,-8.2897
13.2,2371,111,39.3899,-8.2897
13.3,2382,110,39.3899,-8.2897
13.4,2392,108,39.3899,-8.2897
13.7,2422,104,39.3899,-8.2897
13.8,2432,102,39.3899,-8.2897
13.9,2442,101,39.3899,-8.2897
14.0,2451,100,39.3899,-8.2897
14.1,2461,98,39.3899,-8.2897
14.3,2479,95,39.3899,-8.2897
14.5,2497,93,39.3899,-8.2897
14.8,2524,89,39.3899,-8.2897
15.1,2549,85,39.3899,-8.2897
15.4,2574,81,39.3899,-8.2897
15.5,2581,80,39.3899,-8.2897
15.7,2597,78,39.3899,-8.2897
15.8,2605,77,39.3899,-8.2897
15.9,2612,76,39.3899,-8.2897
16.0,2620,74,39.3899,-8.2897
16.1,2627,73,39.3899,-8.2897
16.2,2635,72,39.3899,-8.2897
16.4,2649,70,39.3899,-8.2897
16.5,2656,69,39.3899,-8.2897
16.6,2663,68,39.3899,-8.2897
16.7,2670,67,39.3899,-8.2897
16.8,2677,66,39.3899,-8.2897
16.9,2683,65,39.3899,-8.2897
17.2,2703,62,39.3899,-8.2897
17.3,2709,61,39.3899,-8.2897
17.4,2715,60,39.3899,-8.2897
17.5,2722,59,39.3899,-8.2897
17.6,2728,58,39.3899,-8.2897
17.8,2740,56,39.3899,-8.2897
17.9,2746,55,39.3899,-8.2897
18.0,2752,55,39.3899,-8.2897
18.1,2758,54,39.3899,-8.2897
18.2,2764,53,39.3899,-8.2897
18.3,2770,52,39.3899,-8.2897
18.5,2781,50,39.3899,-8.2897
18.6,2786,50,39.3899,-8.2897
18.8,2797,48,39.3899,-8.2897
18.9,2802,47,39.3899,-8.2897
19.0,2807,46,39.3899,-8.2897
19.3,2821,43,39.3899,-8.2897
19.5,2830,42,39.3899,-8.2897
19.6,2834,41,39.3899,-8.2897
19.7,2838,40,39.3899,-8.2897
19.8,2842,39,39.3899,-8.2897
20.0,2850,36,39.3899,-8.2897
20.1,2853,35,39.3899,-8.2897
20.2,2857,34,39.3899,-8.2897
20.3,2860,33,39.3899,-8.2897
20.5,2866,31,39.3899,-8.2897
20.8,2874,27,39.3899,-8.2897
20.9,2877,26,39.3899,-8.2897
21.0,2879,25,39.3899,-8.2897
21.1,2882,24,39.3899,-8.2897
21.2,2884,23,39.3899,-8.2897
21.3,2886,22,39.3899,-8.2897
21.4,2888,21,39.3899,-8.2897
21.6,2892,18,39.3899,-8.2897
21.7,2894,17,39.3899,-8.2897
21.8,2895,16,39.3899,-8.2897
21.9,2897,15,39.3899,-8.2897
22.0,2898,14,39.3899,-8.2897
22.2,2901,13,39.3899,-8.2897
22.3,2903,12,39.3899,-8.2897
22.5,2905,10,39.3899,-8.2897
22.6,2907,9,39.3899,-8.2897
22.8,2909,8,39.3899,-8.2897
22.9,2910,7,39.3899,-8.2897
23.0,2910,6,39.3899,-8.2897
23.2,2912,4,39.3899,-8.2897
23.3,2912,4,39.3899,-8.2897
23.5,2913,2,39.3899,-8.2897
23.6,2913,1,39.3899,-8.2897
23.7,2914,0,39.3899,-8.2897
23.8,2914,0,39.3899,-8.2897
23.9,2914,-1,39.3899,-8.2897
24.0,2914,-1,39.3899,-8.2897
24.1,2914,-2,39.3899,-8.2897
24.2,2914,-2,39.3899,-8.2897
24.3,2913,-2,39.3899,-8.2897
24.4,2913,-3,39.3899,-8.2897
24.7,2911,-4,39.3899,-8.2897
24.8,2909,-5,39.3899,-8.2897
24.9,2906,-7,39.3899,-8.2897
25.0,2904,-8,39.3899,-8.2897
25.1,2902,-10,39.3899,-8.2897
25.2,2900,-11,39.3899,-8.2897
25.5,2893,-14,39.3899,-8.2897
25.6,2893,-13,39.3899,-8.2897
25.7,2893,-11,39.3899,-8.2897
25.8,2895,-8,39.3899,-8.2897
25.9,2896,-6,39.3899,-8.2897
26.0,2897,-5,39.3899,-8.2897
26.2,2892,-8,39.3899,-8.2897
26.3,2893,-7,39.3899,-8.2897
26.4,2892,-7,39.3899,-8.2897
26.5,2889,-9,39.3899,-8.2897
26.6,2884,-12,39.3899,-8.2897
26.7,2882,-13,39.3899,-8.2897
26.8,2880,-14,39.3899,-8.2897
27.0,2874,-17,39.3899,-8.2897
27.1,2872,-17,39.3899,-8.2897
27.2,2868,-19,39.3899,-8.2897
27.3,2864,-21,39.3899,-8.2897
27.4,2862,-22,39.3899,-8.2897
27.8,2852,-23,39.3899,-8.2897
27.9,2847,-25,39.3899,-8.2897
28.0,2844,-26,39.3899,-8.2897
28.2,2837,-28,39.3899,-8.2897
28.3,2834,-27,39.3899,-8.2897
28.5,2833,-23,39.3899,-8.2897
28.8,2837,-13,39.3899,-8.2897
28.9,2838,-10,39.3899,-8.2897
29.1,2836,-11,39.3899,-8.2897
29.2,2830,-16,39.3899,-8.2897
29.3,2823,-21,39.3899,-8.2897
29.5,2812,-28,39.3899,-8.2897
29.6,2807,-29,39.3899,-8.2897
29.7,2804,-30,39.3899,-8.2897
30.1,2797,-26,39.3899,-8.2897
30.2,2791,-29,39.3899,-8.2897
30.3,2785,-32,39.3899,-8.2897
30.4,2779,-35,39.3899,-8.2897
30.5,2775,-36,39.3899,-8.2897
30.7,2771,-31,39.3899,-8.2897
31.0,2763,-30,39.3899,-8.2897
31.1,2761,-30,39.3899,-8.2897
31.2,2759,-29,39.3899,-8.2897
31.3,2759,-26,39.3899,-8.2897
31.4,2755,-27,39.3899,-8.2897
31.5,2750,-29,39.3899,-8.2897
31.6,2751,-26,39.3899,-8.2897
31.7,2750,-24,39.3899,-8.2897
31.9,2745,-24,39.3899,-8.2897
32.0,2741,-25,39.3899,-8.2897
32.1,2738,-26,39.3899,-8.2897
32.2,2734,-27,39.3899,-8.2897
32.3,2732,-27,39.3899,-8.2897
32.6,2732,-19,39.3899,-8.2897
32.7,2733,-16,39.3899,-8.2897
32.8,2733,-14,39.3899,-8.2897
32.9,2732,-14,39.3899,-8.2897
33.0,2727,-17,39.3899,-8.2897
33.2,2713,-28,39.3899,-8.2897
33.4,2700,-34,39.3899,-8.2897
33.5,2695,-35,39.3899,-8.2897
33.7,2686,-37,39.3899,-8.2897
33.8,2682,-38,39.3899,-8.2897
33.9,2677,-39,39.3899,-8.2897
34.1,2668,-40,39.3899,-8.2897
34.2,2664,-40,39.3899,-8.2897
34.3,2664,-36,39.3899,-8.2897
34.5,2665,-29,39.3899,-8.2897
34.6,2664,-26,39.3899,-8.2897
34.7,2663,-25,39.3899,-8.2897
34.8,2660,-26,39.3899,-8.2897
35.1,2658,-20,39.3899,-8.2897
35.2,2656,-19,39.3899,-8.2897
35.3,2651,-22,39.3899,-8.2897
35.4,2645,-26,39.3899,-8.2897
35.5,2640,-28,39.3899,-8.2897
35.8,2639,-21,39.3899,-8.2897
35.9,2640,-18,39.3899,-8.2897
36.0,2641,-15,39.3899,-8.2897
36.1,2640,-15,39.3899,-8.2897
36.2,2638,-15,39.3899,-8.2897
36.3,2635,-16,39.3899,-8.2897
36.4,2632,-18,39.3899,-8.2897
36.5,2629,-19,39.3899,-8.2897
36.7,2622,-22,39.3899,-8.2897
36.8,2620,-22,39.3899,-8.2897
36.9,2615,-25,39.3899,-8.2897
37.0,2608,-29,39.3899,-8.2897
37.2,2597,-34,39.3899,-8.2897
37.3,2590,-37,39.3899,-8.2897
37.6,2583,-33,39.3899,-8.2897
37.7,2584,-28,39.3899,-8.2897
37.8,2586,-24,39.3899,-8.2897
37.9,2586,-21,39.3899,-8.2897
38.0,2584,-20,39.3899,-8.2897
38.3,2577,-22,39.3899,-8.2897
38.4,2574,-23,39.3899,-8.2897
38.5,2569,-25,39.3899,-8.2897
38.6,2563,-28,39.3899,-8.2897
38.7,2560,-28,39.3899,-8.2897
38.8,2561,-24,39.3899,-8.2897
38.9,2561,-22,39.3899,-8.2897
39.1,2556,-23,39.3899,-8.2897
39.2,2553,-24,39.3899,-8.2897
39.4,2547,-25,39.3899,-8.2897
39.5,2544,-25,39.3899,-8.2897
39.6,2541,-26,39.3899,-8.2897
39.8,2529,-32,39.3899,-8.2897
40.0,2527,-27,39.3899,-8.2897
40.1,2528,-24,39.3899,-8.2897
40.2,2527,-22,39.3899,-8.2897
40.3,2526,-21,39.3899,-8.2897
40.6,2513,-27,39.3899,-8.2897
40.7,2511,-26,39.3899,-8.2897
40.8,2511,-24,39.3899,-8.2897
40.9,2512,-20,39.3899,-8.2897
41.0,2512,-18,39.3899,-8.2897
41.1,2510,-18,39.3899,-8.2897
41.3,2503,-22,39.3899,-8.2897
41.5,2501,-19,39.3899,-8.2897
41.6,2500,-18,39.3899,-8.2897
41.7,2497,-19,39.3899,-8.2897
41.8,2492,-22,39.3899,-8.2897
41.9,2486,-26,39.3899,-8.2897
42.2,2480,-24,39.3899,-8.2897
42.3,2479,-22,39.3899,-8.2897
42.4,2478,-21,39.3899,-8.2897
42.5,2474,-23,39.3899,-8.2897
42.6,2467,-28,39.3899,-8.2897
42.9,2454,-31,39.3899,-8.2897
43.0,2452,-30,39.3899,-8.2897
43.1,2450,-29,39.3899,-8.2897
43.2,2448,-28,39.3899,-8.2897
43.3,2447,-26,39.3899,-8.2897
43.4,2446,-24,39.3899,-8.2897
43.5,2445,-23,39.3899,-8.2897
43.7,2442,-22,39.3899,-8.2897
44.0,2435,-22,39.3899,-8.2897
44.5,2415,-28,39.3899,-8.2897
45.0,2395,-33,39.3899,-8.2897
45.5,2378,-34,39.3899,-8.2897
45.9,2373,-27,39.3899,-8.2897
46.2,2364,-28,39.3899,-8.2897
46.3,2360,-29,39.3899,-8.2897
46.4,2356,-30,39.3899,-8.2897
46.6,2348,-32,39.3899,-8.2897
46.7,2344,-32,39.3899,-8.2897
46.8,2342,-31,39.3899,-8.2897
46.9,2340,-30,39.3899,-8.2897
47.0,2339,-28,39.3899,-8.2897
47.1,2338,-26,39.3899,-8.2897
47.3,2332,-27,39.3899,-8.2897
47.4,2327,-29,39.3899,-8.2897
47.5,2321,-32,39.3899,-8.2897
47.6,2316,-34,39.3899,-8.2897
47.7,2313,-33,39.3899,-8.2897
47.8,2313,-30,39.3899,-8.2897
48.2,2301,-30,39.3899,-8.2897
48.3,2297,-31,39.3899,-8.2897
48.4,2293,-31,39.3899,-8.2897
48.5,2292,-30,39.3899,-8.2897
48.6,2293,-26,39.3899,-8.2897
49.0,2281,-28,39.3899,-8.2897
49.1,2278,-28,39.3899,-8.2897
49.2,2276,-26,39.3899,-8.2897
49.3,2273,-27,39.3899,-8.2897
49.4,2267,-31,39.3899,-8.2897
49.5,2260,-34,39.3899,-8.2897
49.7,2257,-30,39.3899,-8.2897
49.8,2256,-28,39.3899,-8.2897
49.9,2252,-30,39.3899,-8.2897
50.0,2250,-28,39.3899,-8.2897
50.1,2251,-24,39.3899,-8.2897
50.3,2250,-21,39.3899,-8.2897
50.4,2249,-20,39.3899,-8.2897
50.5,2248,-18,39.3899,-8.2897
50.6,2249,-16,39.3899,-8.2897
50.9,2241,-19,39.3899,-8.2897
51.3,2226,-25,39.3899,-8.2897
51.6,2216,-28,39.3899,-8.2897
51.7,2212,-29,39.3899,-8.2897
52.0,2209,-23,39.3899,-8.2897
52.3,2208,-18,39.3899,-8.2897
52.4,2203,-21,39.3899,-8.2897
52.7,2189,-28,39.3899,-8.2897
52.8,2188,-26,39.3899,-8.2897
52.9,2187,-24,39.3899,-8.2897
53.0,2185,-24,39.3899,-8.2897
53.1,2182,-24,39.3899,-8.2897
53.2,2179,-24,39.3899,-8.2897
53.5,2172,-24,39.3899,-8.2897
53.6,2170,-23,39.3899,-8.2897
53.7,2170,-21,39.3899,-8.2897
53.8,2168,-21,39.3899,-8.2897
53.9,2160,-26,39.3899,-8.2897
54.2,2147,-31,39.3899,-8.2897
54.3,2143,-31,39.3899,-8.2897
54.4,2140,-31,39.3899,-8.2897
54.5,2138,-30,39.3899,-8.2897
54.6,2136,-29,39.3899,-8.2897
54.7,2137,-25,39.3899,-8.2897
54.8,2138,-22,39.3899,-8.2897
54.9,2137,-21,39.3899,-8.2897
55.0,2134,-21,39.3899,-8.2897
55.2,2125,-26,39.3899,-8.2897
55.3,2120,-28,39.3899,-8.2897
55.4,2116,-29,39.3899,-8.2897
55.5,2111,-31,39.3899,-8.2897
55.7,2099,-36,39.3899,-8.2897
55.8,2094,-38,39.3899,-8.2897
55.9,2089,-39,39.3899,-8.2897
56.0,2085,-39,39.3899,-8.2897
56.1,2084,-36,39.3899,-8.2897
56.3,2083,-30,39.3899,-8.2897
56.7,2082,-20,39.3899,-8.2897
56.8,2080,-21,39.3899,-8.2897
56.9,2077,-21,39.3899,-8.2897
57.0,2074,-22,39.3899,-8.2897
57.1,2073,-21,39.3899,-8.2897
57.2,2074,-18,39.3899,-8.2897
57.5,2063,-23,39.3899,-8.2897
57.6,2057,-27,39.3899,-8.2897
57.7,2052,-29,39.3899,-8.2897
57.8,2047,-31,39.3899,-8.2897
57.9,2042,-33,39.3899,-8.2897
58.2,2028,-36,39.3899,-8.2897
58.3,2026,-35,39.3899,-8.2897
58.4,2022,-35,39.3899,-8.2897
58.5,2019,-35,39.3899,-8.2897
58.7,2019,-28,39.3899,-8.2897
58.8,2020,-24,39.3899,-8.2897
59.0,2023,-16,39.3899,-8.2897
59.1,2024,-14,39.3899,-8.2897
59.2,2023,-14,39.3899,-8.2897
59.3,2019,-16,39.3899,-8.2897
59.4,2016,-18,39.3899,-8.2897
59.5,2014,-18,39.3899,-8.2897
59.7,2013,-15,39.3899,-8.2897
59.8,2009,-18,39.3899,-8.2897
59.9,2002,-23,39.3899,-8.2897
60.0,1996,-27,39.3899,-8.2897
60.1,1991,-29,39.3899,-8.2897
60.2,1986,-30,39.3899,-8.2897
60.5,1977,-30,39.3899,-8.2897
60.6,1977,-28,39.3899,-8.2897
60.7,1976,-25,39.3899,-8.2897
60.8,1974,-25,39.3899,-8.2897
61.1,1959,-32,39.3899,-8.2897
61.2,1959,-28,39.3899,-8.2897
61.4,1956,-25,39.3899,-8.2897
61.5,1954,-25,39.3899,-8.2897
61.6,1952,-24,39.3899,-8.2897
61.7,1951,-23,39.3899,-8.2897
61.8,1950,-22,39.3899,-8.2897
61.9,1948,-21,39.3899,-8.2897
62.0,1948,-19,39.3899,-8.2897
62.2,1947,-16,39.3899,-8.2897
62.3,1942,-20,39.3899,-8.2897
62.4,1934,-26,39.3899,-8.2897
62.5,1927,-30,39.3899,-8.2897
62.6,1920,-33,39.3899,-8.2897
62.7,1915,-35,39.3899,-8.2897
63.0,1913,-27,39.3899,-8.2897
63.1,1913,-24,39.3899,-8.2897
63.2,1913,-23,39.3899,-8.2897
63.4,1906,-25,39.3899,-8.2897
63.5,1902,-26,39.3899,-8.2897
63.8,1897,-23,39.3899,-8.2897
63.9,1897,-20,39.3899,-8.2897
64.0,1898,-18,39.3899,-8.2897
64.1,1897,-17,39.3899,-8.2897
64.2,1896,-16,39.3899,-8.2897
64.3,1894,-16,39.3899,-8.2897
64.4,1893,-16,39.3899,-8.2897
64.6,1887,-19,39.3899,-8.2897
64.7,1881,-22,39.3899,-8.2897
64.8,1875,-26,39.3899,-8.2897
64.9,1869,-29,39.3899,-8.2897
65.1,1863,-29,39.3899,-8.2897
65.2,1862,-27,39.3899,-8.2897
65.3,1860,-26,39.3899,-8.2897
65.4,1857,-27,39.3899,-8.2897
65.5,1853,-29,39.3899,-8.2897
65.6,1850,-29,39.3899,-8.2897
65.9,1841,-29,39.3899,-8.2897
66.0,1837,-30,39.3899,-8.2897
66.1,1835,-29,39.3899,-8.2897
66.2,1834,-27,39.3899,-8.2897
66.3,1833,-25,39.3899,-8.2897
66.4,1829,-27,39.3899,-8.2897
66.6,1817,-33,39.3899,-8.2897
66.7,1813,-33,39.3899,-8.2897
66.8,1811,-32,39.3899,-8.2897
67.0,1814,-23,39.3899,-8.2897
67.1,1814,-20,39.3899,-8.2897
67.3,1812,-19,39.3899,-8.2897
67.4,1808,-21,39.3899,-8.2897
67.5,1803,-23,39.3899,-8.2897
67.6,1799,-25,39.3899,-8.2897
67.7,1797,-25,39.3899,-8.2897
67.8,1795,-24,39.3899,-8.2897
68.1,1789,-23,39.3899,-8.2897
68.2,1784,-27,39.3899,-8.2897
68.3,1782,-25,39.3899,-8.2897
68.4,1780,-25,39.3899,-8.2897
68.5,1778,-25,39.3899,-8.2897
68.6,1776,-24,39.3899,-8.2897
68.8,1774,-21,39.3899,-8.2897
68.9,1771,-22,39.3899,-8.2897
69.0,1766,-24,39.3899,-8.2897
69.1,1760,-28,39.3899,-8.2897
69.2,1755,-30,39.3899,-8.2897
69.3,1752,-30,39.3899,-8.2897
69.5,1749,-28,39.3899,-8.2897
69.6,1747,-26,39.3899,-8.2897
69.7,1745,-25,39.3899,-8.2897
69.8,1743,-25,39.3899,-8.2897
69.9,1741,-24,39.3899,-8.2897
70.2,1737,-22,39.3899,-8.2897
70.4,1730,-24,39.3899,-8.2897
70.5,1725,-26,39.3899,-8.2897
70.6,1721,-28,39.3899,-8.2897
70.7,1717,-29,39.3899,-8.2897
71.0,1709,-29,39.3899,-8.2897
71.1,1705,-30,39.3899,-8.2897
71.2,1704,-28,39.3899,-8.2897
71.4,1700,-26,39.3899,-8.2897
71.5,1696,-27,39.3899,-8.2897
71.6,1692,-29,39.3899,-8.2897
71.8,1685,-30,39.3899,-8.2897
71.9,1684,-28,39.3899,-8.2897
72.0,1685,-24,39.3899,-8.2897
72.1,1681,-26,39.3899,-8.2897
72.2,1675,-29,39.3899,-8.2897
72.4,1668,-30,39.3899,-8.2897
72.5,1667,-28,39.3899,-8.2897
72.7,1663,-26,39.3899,-8.2897
72.8,1660,-27,39.3899,-8.2897
72.9,1656,-28,39.3899,-8.2897
73.0,1653,-28,39.3899,-8.2897
73.1,1650,-28,39.3899,-8.2897
73.3,1642,-30,39.3899,-8.2897
73.4,1642,-27,39.3899,-8.2897
73.5,1642,-24,39.3899,-8.2897
73.6,1637,-27,39.3899,-8.2897
73.9,1630,-26,39.3899,-8.2897
74.0,1628,-25,39.3899,-8.2897
74.1,1626,-24,39.3899,-8.2897
74.2,1623,-25,39.3899,-8.2897
74.3,1619,-26,39.3899,-8.2897
74.5,1610,-30,39.3899,-8.2897
74.6,1609,-27,39.3899,-8.2897
74.7,1609,-25,39.3899,-8.2897
74.8,1608,-23,39.3899,-8.2897
74.9,1604,-25,39.3899,-8.2897
75.3,1598,-21,39.3899,-8.2897
75.7,1583,-26,39.3899,-8.2897
76.3,1566,-26,39.3899,-8.2897
76.5,1559,-28,39.3899,-8.2897
76.9,1553,-23,39.3899,-8.2897
77.0,1548,-26,39.3899,-8.2897
77.2,1540,-28,39.3899,-8.2897
77.3,1540,-25,39.3899,-8.2897
77.4,1540,-23,39.3899,-8.2897
77.5,1539,-22,39.3899,-8.2897
77.6,1536,-22,39.3899,-8.2897
77.7,1532,-24,39.3899,-8.2897
78.0,1517,-31,39.3899,-8.2897
78.1,1514,-30,39.3899,-8.2897
78.2,1514,-27,39.3899,-8.2897
78.3,1515,-24,39.3899,-8.2897
78.4,1514,-22,39.3899,-8.2897
78.6,1508,-24,39.3899,-8.2897
78.7,1506,-24,39.3855,-8.2856
78.8,1503,-24,39.3855,-8.2856
78.9,1501,-24,39.3855,-8.2855
79.0,1500,-23,39.3855,-8.2855
79.1,1499,-21,39.3855,-8.2855
79.2,1498,-20,39.3855,-8.2855
79.3,1497,-18,39.3855,-8.2855
79.4,1496,-17,39.3855,-8.2855
79.5,1495,-17,39.3855,-8.2855
79.6,1494,-17,39.3855,-8.2855
79.7,1491,-18,39.3855,-8.2855
79.8,1488,-19,39.3855,-8.2855
79.9,1485,-20,39.3855,-8.2855
80.2,1473,-25,39.3855,-8.2855
80.3,1470,-25,39.3855,-8.2855
80.4,1468,-25,39.3855,-8.2855
80.6,1463,-26,39.3855,-8.2855
80.7,1455,-30,39.3855,-8.2855
80.9,1445,-34,39.3855,-8.2855
81.0,1440,-36,39.3855,-8.2855
81.1,1434,-38,39.3857,-8.2855
81.2,1428,-40,39.3857,-8.2855
81.3,1426,-38,39.3857,-8.2855
81.6,1424,-29,39.3857,-8.2855
81.7,1422,-28,39.3857,-8.2855
81.8,1419,-28,39.3857,-8.2855
81.9,1416,-28,39.3857,-8.2855
82.0,1415,-27,39.3857,-8.2855
82.1,1414,-25,39.3857,-8.2855
82.2,1414,-23,39.3857,-8.2855
82.4,1407,-25,39.3857,-8.2855
82.5,1402,-27,39.3857,-8.2855
82.6,1397,-29,39.3857,-8.2855
82.7,1394,-30,39.3857,-8.2855
82.9,1395,-23,39.3857,-8.2855
83.0,1396,-20,39.3857,-8.2855
83.3,1392,-18,39.3857,-8.2855
83.4,1390,-18,39.3857,-8.2855
83.5,1388,-18,39.3858,-8.2855
83.6,1383,-21,39.3858,-8.2855
83.7,1377,-25,39.3858,-8.2855
83.9,1366,-31,39.3858,-8.2855
84.0,1361,-33,39.3858,-8.2855
84.1,1354,-36,39.3858,-8.2855
84.2,1348,-38,39.3858,-8.2855
84.3,1343,-39,39.3858,-8.2855
84.5,1333,-41,39.3858,-8.2855
84.6,1329,-41,39.3858,-8.2855
84.7,1325,-41,39.3858,-8.2855
84.9,1328,-30,39.3858,-8.2855
85.0,1328,-27,39.3858,-8.2855
85.1,1328,-24,39.3858,-8.2855
85.3,1329,-19,39.3858,-8.2855
85.4,1328,-18,39.3858,-8.2855
85.5,1325,-20,39.3858,-8.2855
85.6,1320,-23,39.3858,-8.2855
85.7,1315,-25,39.3858,-8.2855
86.1,1302,-27,39.3858,-8.2855
86.2,1299,-28,39.3858,-8.2855
86.3,1296,-28,39.3858,-8.2855
86.4,1295,-26,39.3858,-8.2855
86.5,1295,-23,39.3858,-8.2855
86.6,1294,-22,39.3858,-8.2855
86.9,1287,-22,39.3858,-8.2855
87.0,1285,-22,39.3858,-8.2855
87.4,1279,-19,39.3858,-8.2855
87.7,1279,-14,39.3858,-8.2855
87.9,1273,-17,39.3858,-8.2855
88.0,1267,-21,39.3858,-8.2855
88.3,1254,-27,39.3858,-8.2855
88.5,1249,-26,39.3858,-8.2855
88.6,1247,-25,39.3858,-8.2855
88.7,1246,-24,39.3858,-8.2855
88.8,1246,-22,39.3858,-8.2855
88.9,1244,-22,39.3858,-8.2855
89.0,1241,-22,39.3858,-8.2855
89.1,1238,-23,39.3858,-8.2855
89.3,1232,-24,39.3858,-8.2855
89.4,1229,-24,39.3858,-8.2855
89.5,1227,-24,39.3858,-8.2855
89.6,1224,-24,39.3858,-8.2855
89.7,1222,-25,39.3858,-8.2855
90.0,1208,-31,39.3858,-8.2855
90.1,1202,-33,39.3858,-8.2855
90.2,1196,-35,39.3858,-8.2855
90.3,1191,-37,39.3858,-8.2855
90.4,1185,-39,39.3858,-8.2855
90.5,1180,-40,39.3858,-8.2855
90.6,1178,-38,39.3858,-8.2855
90.8,1177,-32,39.3858,-8.2855
90.9,1178,-28,39.3858,-8.2855
91.0,1179,-24,39.3858,-8.2855
91.1,1180,-21,39.3858,-8.2855
91.2,1179,-19,39.3858,-8.2855
91.5,1173,-20,39.3858,-8.2855
91.6,1170,-20,39.3858,-8.2855
91.7,1168,-21,39.3863,-8.2855
91.8,1165,-21,39.3863,-8.2855
91.9,1164,-20,39.3863,-8.2855
92.0,1164,-18,39.3863,-8.2855
92.4,1157,-18,39.3863,-8.2855
92.5,1155,-18,39.3863,-8.2855
92.8,1145,-23,39.3863,-8.2855
92.9,1140,-25,39.3863,-8.2855
93.0,1136,-27,39.3863,-8.2855
93.3,1124,-30,39.3863,-8.2855
93.5,1117,-30,39.3863,-8.2855
93.6,1115,-30,39.3863,-8.2855
93.7,1110,-31,39.3863,-8.2855
93.8,1105,-33,39.3863,-8.2855
93.9,1100,-34,39.3863,-8.2855
94.0,1094,-37,39.3863,-8.2855
94.3,1091,-30,39.3863,-8.2855
94.4,1088,-30,39.3863,-8.2855
94.5,1086,-29,39.3863,-8.2855
94.6,1085,-27,39.3863,-8.2855
94.7,1082,-28,39.3863,-8.2855
95.0,1076,-25,39.3863,-8.2855
95.1,1074,-24,39.3863,-8.2855
