ts,height,velocity,acceleration
-0.76,0.01779453456401825,0.06104503571987152,-0.0020126309245824814
-0.75,0.010446485131978989,0.05279165506362915,-0.002140834927558899
-0.74,0.003168066032230854,0.04469441622495651,-0.0022665876895189285
-0.73,-0.005624756217002869,0.03511298820376396,-0.0024154316633939743
-0.72,-0.01433137059211731,0.025718390941619873,-0.0025613438338041306
-0.71,-0.02295171096920967,0.016508782282471657,-0.0027043521404266357
-0.7,-0.03148573264479637,0.007482326589524746,-0.0028444863855838776
-0.69,-0.03993340954184532,-0.0013628141023218632,-0.002981775440275669
-0.68,-0.04482428729534149,-0.00643817288801074,-0.003060341812670231
-0.67,-0.04966472089290619,-0.011409622617065907,-0.0031372783705592155
-0.66,-0.05444284528493881,-0.016168830916285515,0.006549392826855183
-0.65,-0.059160053730010986,-0.020816529169678688,0.0064760008826851845
-0.64,-0.06382618844509125,-0.025364037603139877,0.006404181011021137
-0.63,-0.06844130903482437,-0.029812440276145935,0.006333915516734123
-0.62,-0.05927308276295662,-0.019956130534410477,0.006486406549811363
-0.61,-0.050196051597595215,-0.010294623672962189,0.006635840982198715
-0.6,-0.04474351927638054,-0.004481262527406216,0.006725330837070942
-0.59,-0.03581244498491287,0.0048715281300246716,0.006869920529425144
-0.58,-0.026972653344273567,0.014034567400813103,0.007011532783508301
-0.57,-0.021756907925009727,0.019452102482318878,0.01685318350791931
-0.56,-0.01659490540623665,0.024758806452155113,0.016933191567659378
-0.55,-0.011487588286399841,0.02976062521338463,-0.0025102319195866585
-0.54,-0.006435866001993418,0.03465396165847778,-0.0024336446076631546
-0.53,-0.001439661718904972,0.039440006017684937,-0.002358740195631981
-0.52,0.0034634547773748636,0.04408097639679909,-0.0022861063480377197
-0.51,0.008311623707413673,0.04861781373620033,-0.0022151051089167595
-0.5,0.013104950077831745,0.05305168032646179,-0.002145717851817608
-0.49,0.017843548208475113,0.05738375335931778,-0.002077926881611347
-0.48,0.0225275419652462,0.06161519140005112,-0.002011713571846485
-0.47,0.02715706266462803,0.06574715673923492,-0.0019470592960715294
-0.46,0.03173225373029709,0.06978081166744232,-0.0018839463591575623
-0.45,0.03625326231122017,0.07371731847524643,-0.0018223561346530914
-0.44,0.04066915810108185,0.077504962682724,-0.0017630932852625847
-0.43,0.045031722635030746,0.08119884133338928,-0.0017052991315722466
-0.42,0.037361450493335724,0.07260086387395859,0.01767975650727749
-0.41,0.028018806129693985,0.06236035376787186,0.017517544329166412
-0.4,0.018767178058624268,0.05231832340359688,0.01735844649374485
-0.39,0.011350908316671848,0.04408314451575279,-0.0022911643609404564
-0.38,0.004005844239145517,0.03600555658340454,-0.002416587434709072
-0.37,-0.003267928957939148,0.028084037825465202,-0.002539561130106449
-0.36,-0.008705119602382183,0.022143259644508362,-0.0026316726580262184
-0.35,-0.0038032601587474346,0.027153361588716507,0.01696542650461197
-0.34,-0.005820167250931263,0.0249546617269516,0.016928546130657196
-0.33,-0.00781826488673687,0.0226035937666893,-0.002629372291266918
-0.32,-0.0029310137033462524,0.027399634942412376,-0.0025542816147208214
-0.31,0.0019026552326977253,0.03199427202343941,-0.012241675518453121
-0.3,0.00668234471231699,0.03648626059293747,-0.012169822119176388
-0.29,0.004540693946182728,0.03377211093902588,-0.012210190296173096
-0.28,0.009284253232181072,0.038305751979351044,-0.0023783566430211067
-0.27,0.01397794857621193,0.043324247002601624,0.05625808611512184
-0.26,0.01862766221165657,0.04834311455488205,0.06608681380748749
-0.25,0.024892399087548256,0.054107580333948135,-0.02167060598731041
-0.24,0.031085308641195297,0.05973903089761734,-0.021579541265964508
-0.23,0.03554117679595947,0.06351608783006668,-0.02151736617088318
-0.22,0.03994279354810715,0.06719856709241867,-0.021456673741340637
-0.21,0.04595859348773956,0.07309611886739731,0.03719642758369446
-0.2,0.05190896987915039,0.07886583358049393,0.037280477583408356
-0.19,0.057794008404016495,0.08450910449028015,0.03736254572868347
-0.18,0.060169294476509094,0.08646383881568909,0.037387169897556305
-0.17,0.06251413375139236,0.08817287534475327,0.017888331785798073
-0.16,0.06482770293951035,0.0898321121931076,0.017911382019519806
-0.15,0.07398775964975357,0.09855736047029495,0.01804445870220661
-0.14,0.08304665237665176,0.10728322714567184,0.03769715130329132
-0.13,0.09200550615787506,0.1158166229724884,0.03782415762543678
-0.12,0.10068415850400925,0.12377890944480896,0.018422625958919525
-0.11,0.11602336168289185,0.13855060935020447,0.01864977553486824
-0.1,0.1311931312084198,0.1529964655637741,0.018871814012527466
-0.09,0.1461937427520752,0.167120099067688,0.019088802859187126
-0.08,0.15451574325561523,0.22507458925247192,5.134057998657227
-0.07,0.16334268450737,0.331991970539093,10.063559532165527
-0.06,0.1240069568157196,0.5052834749221802,21.8543758392334
-0.05,0.024516664445400238,0.7709824442863464,37.577945709228516
-0.04,-0.0832744911313057,1.2472175359725952,59.8803596496582
-0.03,-0.18418437242507935,1.727470874786377,60.06394577026367
-0.02,-0.27825814485549927,2.2231128215789795,61.399391174316406
-0.01,-0.3514552116394043,2.747830629348755,62.66676330566406
0.0,-0.41764795780181885,3.348637580871582,70.13250732421875
0.01,-0.3807116150856018,4.1407365798950195,79.21041107177734
0.02,-0.3349175453186035,5.024107456207275,88.3371353149414
0.03,-0.2801370918750763,5.907483100891113,88.3371353149414
0.04,-0.2164936661720276,6.790861129760742,88.3371353149414
0.05,-0.14402440190315247,7.674240589141846,88.3371353149414
0.06,-0.06273023784160614,8.557621955871582,88.3371353149414
0.07,0.027323933318257332,9.428216934204102,87.05841827392578
0.08,0.1260921210050583,10.298813819885254,87.05841827392578
0.09,0.23355449736118317,11.169411659240723,87.05841827392578
0.1,0.34970054030418396,12.040008544921875,87.05841827392578
0.11,0.47450900077819824,12.90464973449707,86.4629898071289
0.12,0.6079585552215576,13.769291877746582,86.4629898071289
0.13,0.750038743019104,14.633932113647461,86.4629898071289
0.14,0.9007672667503357,15.498573303222656,86.4629898071289
0.15,1.060135006904602,16.365360260009766,86.677734375
0.16,1.2281602621078491,17.229999542236328,86.4629898071289
0.17,1.4048117399215698,18.094635009765625,86.4629898071289
0.18,1.5901079177856445,18.959270477294922,86.4629898071289
0.19,1.7840863466262817,19.823915481567383,86.4629898071289
0.2,1.9867479801177979,20.690717697143555,86.677734375
0.21,2.1981465816497803,21.562414169311523,87.1657943725586
0.22,2.4182467460632324,22.43410873413086,87.1657943725586
0.23,2.6471574306488037,23.305835723876953,87.1657943725586
0.24,2.884758472442627,24.17755699157715,87.1657943725586
0.25,3.1310482025146484,25.049270629882812,87.1657943725586
0.26,3.386033535003662,25.920686721801758,87.13651275634766
0.27,3.6496880054473877,26.789262771606445,86.85343170166016
0.28,3.921995162963867,27.65772819519043,86.84367370605469
0.29,4.202922821044922,28.520225524902344,86.24823760986328
0.3,4.492424964904785,29.3798770904541,85.96516418457031
0.31,4.790504455566406,30.24088478088379,86.10182189941406
0.32,5.097311496734619,31.10340690612793,86.24823760986328
0.33,5.412725925445557,31.96592140197754,86.24823760986328
0.34,5.736847877502441,32.82701873779297,86.10182189941406
0.35,6.069596767425537,33.684329986572266,85.72113800048828
0.36,6.4109063148498535,34.541053771972656,85.66256713867188
0.37,6.7607831954956055,35.39778137207031,85.66256713867188
0.38,7.119217872619629,36.243797302246094,84.58883666992188
0.39,7.486056804656982,37.083457946777344,83.95436096191406
0.4,7.861296653747559,37.92234802246094,83.87627410888672
0.41,8.244922637939453,38.76123809814453,83.87627410888672
0.42,8.636907577514648,39.60011291503906,83.87627410888672
0.43,9.037274360656738,40.43898391723633,83.87627410888672
0.44,9.44598388671875,41.277828216552734,83.87627410888672
0.45,9.863191604614258,42.130760192871094,85.28187561035156
0.46,10.28890609741211,42.98873519897461,85.78946685791016
0.47,10.72317123413086,43.848636627197266,85.98468017578125
0.48,11.165971755981445,44.709171295166016,86.05301666259766
0.49,11.61733341217041,45.574928283691406,86.58012390136719
0.5,12.077425003051758,46.440738677978516,86.58012390136719
0.51,12.54626178741455,47.30661392211914,86.58012390136719
0.52,13.023777961730957,48.17250442504883,86.58012390136719
0.53,13.509928703308105,49.03837966918945,86.58012390136719
0.54,14.00472640991211,49.90385818481445,86.54107666015625
0.55,14.508131980895996,50.76823043823242,86.43370056152344
0.56,15.020106315612793,51.6324462890625,86.42394256591797
0.57,15.540644645690918,52.49659729003906,86.42394256591797
0.58,16.069849014282227,53.36076736450195,86.42394256591797
0.59,16.607746124267578,54.22449493408203,86.37513732910156
0.6,17.154399871826172,55.088809967041016,86.42394256591797
0.61,17.709657669067383,55.95309066772461,86.42394256591797
0.62,18.273481369018555,56.81740188598633,86.43370056152344
0.63,18.845922470092773,57.682273864746094,86.49227142333984
0.64,19.426950454711914,58.5479621887207,86.58012390136719
0.65,20.016633987426758,59.413841247558594,86.59963989257812
0.66,20.61504554748535,60.280269622802734,86.64845275878906
0.67,21.222007751464844,61.1465950012207,86.64845275878906
0.68,21.837535858154297,62.0128288269043,86.64845275878906
0.69,22.461936950683594,62.87984085083008,86.70701599121094
0.7,23.094924926757812,63.747161865234375,86.74605560302734
0.71,23.736534118652344,64.61443328857422,86.74605560302734
0.72,24.386701583862305,65.481689453125,86.75582122802734
0.73,25.045738220214844,66.34971618652344,86.81438446044922
0.74,25.713438034057617,67.21841430664062,86.8827133178711
0.75,26.389677047729492,68.08696746826172,86.8827133178711
0.76,27.0744686126709,68.95539093017578,86.8827133178711
0.77,27.76791000366211,69.82378387451172,86.8827133178711
0.78,28.46999740600586,70.69194030761719,86.86319732666016
0.79,29.180591583251953,71.55992126464844,86.86319732666016
0.8,29.900028228759766,72.42951965332031,87.00961303710938
0.81,30.628042221069336,73.29900360107422,87.00961303710938
0.82,31.3648681640625,74.16928100585938,87.07794189453125
0.83,32.110321044921875,75.03997039794922,87.12674713134766
0.84,32.86445999145508,75.9129638671875,87.36101531982422
0.85,33.62718963623047,76.78582000732422,87.36101531982422
0.86,34.398834228515625,77.65963745117188,87.4391098022461
0.87,35.179100036621094,78.53372192382812,87.4781494140625
0.88,35.96800231933594,79.40770721435547,87.4781494140625
0.89,36.765594482421875,80.2818374633789,87.49767303466797
0.9,37.571754455566406,81.15579986572266,87.49767303466797
0.91,38.3867301940918,82.03012084960938,87.5269546508789
0.92,39.21035385131836,82.90483856201172,87.57575988769531
0.93,40.04273986816406,83.7802505493164,87.64408874511719
0.94,40.88393020629883,84.65784454345703,87.85883331298828
0.95,41.73366165161133,85.53540802001953,87.87835693359375
0.96,42.59209442138672,86.41619873046875,88.21023559570312
0.97,43.45920944213867,87.29705810546875,88.2297592163086
0.98,44.334869384765625,88.17765808105469,88.2297592163086
0.99,45.21967697143555,89.0586929321289,88.23951721191406
1.0,46.11328125,89.9397201538086,88.23951721191406
1.01,47.015342712402344,90.82029724121094,88.2297592163086
1.02,47.925968170166016,91.70045471191406,88.21023559570312
1.03,48.8452262878418,92.58063507080078,88.2297592163086
1.04,49.77317428588867,93.46080780029297,88.23951721191406
1.05,50.70991134643555,94.34126281738281,88.26880645751953
1.06,51.65506362915039,95.22134399414062,88.26880645751953
1.07,52.60904312133789,96.1034927368164,88.47379302978516
1.08,53.572139739990234,96.98816680908203,88.69829559326172
1.09,54.543941497802734,97.87348937988281,88.7763900756836
1.1,55.52419662475586,98.75862884521484,88.79590606689453
1.11,56.513519287109375,99.64640808105469,89.0399398803711
1.12,57.51134490966797,100.53421783447266,89.07898712158203
1.13,58.5175666809082,101.42196655273438,89.11803436279297
1.14,59.5326042175293,102.30985260009766,89.1375503540039
1.15,60.55595779418945,103.19770050048828,89.18635559082031
1.16,61.58812713623047,104.08976745605469,89.6158447265625
1.17,62.62875747680664,104.98218536376953,89.69393920898438
1.18,63.67848587036133,105.8748779296875,89.70370483398438
1.19,64.7369384765625,106.76738739013672,89.70370483398438
1.2,65.80462646484375,107.660400390625,89.72322845458984
1.21,66.88094329833984,108.5542984008789,89.8403549194336
1.22,67.96661376953125,109.44880676269531,89.85987854003906
1.23,69.06074523925781,110.34315490722656,89.88916015625
1.24,70.16336822509766,111.23777770996094,89.95748901367188
1.25,71.27420043945312,112.13172912597656,89.95748901367188
1.26,72.39330291748047,113.0252685546875,89.97702026367188
1.27,73.52103424072266,113.91893768310547,90.01605987548828
1.28,74.65711212158203,114.81295013427734,90.1039047241211
1.29,75.80276489257812,115.70824432373047,90.1722412109375
1.3,76.95697784423828,116.60525512695312,90.3772201538086
1.31,78.11923217773438,117.50288391113281,90.52364349365234
1.32,79.29063415527344,118.40264129638672,90.71886444091797
1.33,80.47126770019531,119.30379486083984,90.83599853515625
1.34,81.66108703613281,120.20552062988281,90.87504577636719
1.35,82.85920715332031,121.1069107055664,90.90432739257812
1.36,84.06553649902344,122.00896453857422,91.04098510742188
1.37,85.28032684326172,122.91461944580078,91.4509506225586
1.38,86.50392150878906,123.82221984863281,91.66570281982422
1.39,87.73644256591797,124.72982025146484,91.67546081542969
1.4,88.97824096679688,125.63868713378906,91.7828369140625
1.41,90.22791290283203,126.54681396484375,91.81211853027344
1.42,91.48641204833984,127.45533752441406,91.87068176269531
1.43,92.75431823730469,128.36465454101562,91.91949462890625
1.44,94.03120422363281,129.2744903564453,91.97805786132812
1.45,95.31653594970703,130.18397521972656,91.9975814819336
1.46,96.6110610961914,131.09640502929688,92.28065490722656
1.47,97.9146499633789,132.01182556152344,92.583251953125
1.48,99.22644805908203,132.92706298828125,92.6418228149414
1.49,100.54730224609375,133.84323120117188,92.73943328857422
1.5,101.87737274169922,134.76016235351562,92.8077621459961
1.51,103.21658325195312,135.67710876464844,92.8077621459961
1.52,104.5644302368164,136.59422302246094,92.8663330078125
1.53,105.92131805419922,137.5116424560547,92.90538024902344
1.54,107.28679656982422,138.42910766601562,92.95417785644531
1.55,108.66121673583984,139.3479766845703,93.11035919189453
1.56,110.04448699951172,140.26904296875,93.3543930053711
1.57,111.43551635742188,141.19068908691406,93.53009033203125
1.58,112.83573913574219,142.11431884765625,93.7253189086914
1.59,114.24573516845703,143.0385284423828,93.73506927490234
1.6,115.6640853881836,143.9625244140625,93.78388214111328
1.61,117.09017944335938,144.8854217529297,93.79364013671875
1.62,118.52759552001953,145.81021118164062,93.80340576171875
1.63,119.97270202636719,146.7342529296875,93.85221099853516
1.64,121.42546081542969,147.65821838378906,93.96934509277344
1.65,122.88569641113281,148.58168029785156,94.05719757080078
1.66,124.3552474975586,149.5067138671875,94.20361328125
1.67,125.83187103271484,150.43055725097656,94.2524185180664
1.68,127.3160400390625,151.35455322265625,94.39884185791016
1.69,128.8074951171875,152.2786102294922,94.55500793457031
1.7,130.30770874023438,153.2025604248047,94.57453918457031
1.71,131.81658935546875,154.12933349609375,94.89665222167969
1.72,133.3341064453125,155.0567626953125,95.0040283203125
1.73,134.85943603515625,155.98312377929688,95.0040283203125
1.74,136.39405822753906,156.9095916748047,95.0040283203125
1.75,137.93605041503906,157.83465576171875,95.0040283203125
1.76,139.48500061035156,158.7580108642578,95.0040283203125
1.77,141.04364013671875,159.68182373046875,95.0040283203125
1.78,142.60897827148438,160.6024932861328,94.87713623046875
1.79,144.18496704101562,161.52438354492188,94.87713623046875
1.8,145.76910400390625,162.44552612304688,94.87713623046875
1.81,147.3601531982422,163.36500549316406,94.87713623046875
1.82,148.9576416015625,164.28248596191406,94.87713623046875
1.83,150.56524658203125,165.20301818847656,95.10164642333984
1.84,152.17974853515625,166.12501525878906,95.41399383544922
1.85,153.80178833007812,167.04583740234375,95.41399383544922
1.86,155.43128967285156,167.96595764160156,95.46280670166016
1.87,157.06976318359375,168.88613891601562,95.47256469726562
1.88,158.71490478515625,169.80482482910156,95.50184631347656
1.89,160.36691284179688,170.72239685058594,95.5506591796875
1.9,162.02545166015625,171.63783264160156,95.52137756347656
1.91,163.69175720214844,172.5526580810547,95.5506591796875
1.92,165.36878967285156,173.46881103515625,95.5506591796875
1.93,167.0538787841797,174.38427734375,95.5506591796875
1.94,168.74539184570312,175.29788208007812,95.5506591796875
1.95,170.44342041015625,176.2094268798828,95.52137756347656
1.96,172.1474151611328,177.1183319091797,95.47256469726562
1.97,173.8564453125,178.02395629882812,95.42375946044922
1.98,175.5717010498047,178.92770385742188,95.42375946044922
1.99,177.29904174804688,179.83383178710938,95.42375946044922
2.0,179.033203125,180.73851013183594,95.42375946044922
2.01,180.77395629882812,181.64207458496094,95.47256469726562
2.02,182.52207946777344,182.54461669921875,95.47256469726562
2.03,184.27560424804688,183.44476318359375,95.47256469726562
2.04,186.03619384765625,184.34371948242188,95.47256469726562
2.05,187.80416870117188,185.24122619628906,95.42375946044922
2.06,189.57960510253906,186.13162231445312,94.79904174804688
2.07,191.3629608154297,187.021240234375,94.76976013183594
2.08,193.15328979492188,187.9087371826172,94.67214965820312
2.09,194.9569091796875,188.798828125,94.60382080078125
2.1,196.765380859375,189.68435668945312,94.4085922241211
2.11,198.5832061767578,190.57041931152344,94.4085922241211
2.12,200.41290283203125,191.45826721191406,94.35979461669922
2.13,202.25221252441406,192.34571838378906,94.2524185180664
2.14,204.1027374267578,193.23486328125,94.24266052246094
2.15,205.96429443359375,194.1243896484375,94.11576080322266
2.16,207.83676147460938,195.0154571533203,94.11576080322266
2.17,209.72142028808594,195.90892028808594,94.11576080322266
2.18,211.61460876464844,196.79991149902344,93.8814926147461
2.19,213.5183868408203,197.68995666503906,93.656982421875
2.2,215.43724060058594,198.5836181640625,93.58865356445312
2.21,217.36744689941406,199.476806640625,93.36415100097656
2.22,219.3072967529297,200.36972045898438,93.27629852294922
2.23,221.26295471191406,201.26734924316406,93.27629852294922
2.24,223.22705078125,202.1647186279297,93.27629852294922
2.25,225.19773864746094,203.0606231689453,93.27629852294922
2.26,227.1781463623047,203.95704650878906,93.26654052734375
2.27,229.16986083984375,204.8551483154297,93.26654052734375
2.28,231.17063903808594,205.75340270996094,93.26654052734375
2.29,233.175048828125,206.6472930908203,93.1689224243164
2.3,235.18624877929688,207.53970336914062,93.14940643310547
2.31,237.2044219970703,208.4280548095703,92.8565673828125
2.32,239.227783203125,209.31375122070312,92.81752014160156
2.33,241.25845336914062,210.1985626220703,92.81752014160156
2.34,243.298583984375,211.0839080810547,92.81752014160156
2.35,245.34393310546875,211.96705627441406,92.81752014160156
2.36,247.3964385986328,212.84886169433594,92.77848052978516
2.37,249.45297241210938,213.72775268554688,92.77848052978516
2.38,251.51547241210938,214.6036376953125,92.6418228149414
2.39,253.58697509765625,215.47962951660156,92.62229919433594
2.4,255.66246032714844,216.35130310058594,92.47588348388672
2.41,257.7444763183594,217.22154235839844,92.45635986328125
2.42,259.8398742675781,218.09275817871094,92.24160766601562
2.43,261.9368896484375,218.95704650878906,91.97805786132812
2.44,264.0442810058594,219.8225860595703,91.97805786132812
2.45,266.1538391113281,220.68426513671875,91.97805786132812
2.46,268.27044677734375,221.5451202392578,91.97805786132812
2.47,270.3948669433594,222.40565490722656,91.97805786132812
