ts,height,velocity,acceleration
-0.76,-0.11914441734552383,0.021679602563381195,-0.01870402693748474
-0.75,-0.09749554842710495,0.04376271367073059,-0.008616983890533447
-0.74,-0.07970227301120758,0.061632055789232254,-0.00833737850189209
-0.73,-0.06209833174943924,0.07912343740463257,-0.008063703775405884
-0.72,-0.044683557003736496,0.09624088555574417,-0.007795900106430054
-0.71,-0.02930826134979725,0.11107399314641953,-0.0075637102127075195
-0.7,-0.01747126877307892,0.12209545075893402,-0.007390916347503662
-0.69,-0.005768720991909504,0.1328655183315277,-0.0072220563888549805
-0.68,0.009168409742414951,0.1468721330165863,-0.007002830505371094
-0.67,0.0205681174993515,0.15707643330097198,-0.006842851638793945
-0.66,0.03183433413505554,0.16703864932060242,-0.006686657667160034
-0.65,0.046336155384778976,0.18024671077728271,-0.0064799487590789795
-0.64,0.06582854688167572,0.19848312437534332,-0.006194978952407837
-0.63,0.08510041236877441,0.21630555391311646,-0.005916506052017212
-0.62,0.10415218770503998,0.23371869325637817,-0.005644440650939941
-0.61,0.122984379529953,0.25072723627090454,-0.00537872314453125
-0.6,0.1310441642999649,0.25641798973083496,-0.005289286375045776
-0.59,0.1338169425725937,0.2566780745983124,0.004455864429473877
-0.58,0.14171460270881653,0.26243123412132263,0.02402624487876892
-0.57,0.14432919025421143,0.2627570927143097,0.03376689553260803
-0.56,0.14689293503761292,0.26293009519577026,0.024025022983551025
-0.55,0.14940492808818817,0.2628539204597473,0.004538595676422119
-0.54,0.15537455677986145,0.26635557413101196,0.004592418670654297
-0.53,0.16125622391700745,0.2697305381298065,0.004644244909286499
-0.52,0.16186875104904175,0.26761993765830994,0.004610657691955566
-0.51,0.16763077676296234,0.2710520625114441,0.024144858121871948
-0.5,0.1749659925699234,0.27607670426368713,0.0242193341255188
-0.49,0.18054169416427612,0.2790359556674957,0.00478014349937439
-0.48,0.18768976628780365,0.28359171748161316,0.004850327968597412
-0.47,0.19986331462860107,0.2933000922203064,0.00500074028968811
-0.46,0.20675542950630188,0.297445684671402,0.005064517259597778
-0.45,0.21188005805015564,0.29972049593925476,0.00509914755821228
-0.44,0.21692202985286713,0.3018866181373596,0.005132079124450684
-0.43,0.22354891896247864,0.30567029118537903,0.0051901936531066895
-0.42,0.22841021418571472,0.3075888454914093,0.005219250917434692
-0.41,0.23319025337696075,0.3093068599700928,-0.004495084285736084
-0.4,0.2463703751564026,0.3196975588798523,-0.0043325722217559814
-0.39,0.2509012222290039,0.32103440165519714,-0.004311084747314453
-0.38,0.24848103523254395,0.31516650319099426,-0.00440177321434021
-0.37,0.24605292081832886,0.30935022234916687,-0.004491657018661499
-0.36,0.24361804127693176,0.3036831319332123,0.005161076784133911
-0.35,0.24104095995426178,0.29802361130714417,0.0148124098777771
-0.34,0.23682035505771637,0.29072144627571106,0.014696389436721802
-0.33,0.23425552248954773,0.2852065861225128,0.014608234167098999
-0.32,0.2316891849040985,0.2797463834285736,0.01452094316482544
-0.31,0.2206115573644638,0.26543962955474854,0.004555642604827881
-0.3,0.21813100576400757,0.2602695822715759,0.014214694499969482
-0.29,0.2259669452905655,0.2659219205379486,0.024041712284088135
-0.28,0.233697772026062,0.2714078724384308,0.024123400449752808
-0.27,0.24136246740818024,0.2768663763999939,0.03394395112991333
-0.26,0.2541646957397461,0.28777796030044556,0.0535891056060791
-0.25,0.26681017875671387,0.29812541604042053,0.02452203631401062
-0.24,0.2808612585067749,0.3098215162754059,0.0247003436088562
-0.23,0.2947391867637634,0.32121923565864563,0.024873971939086914
-0.22,0.308445006608963,0.33241963386535645,0.03478381037712097
-0.21,0.31676217913627625,0.3379310667514801,0.034864217042922974
-0.2,0.32496923208236694,0.3445322513580322,0.1615859866142273
-0.19,0.3347143232822418,0.35217249393463135,0.11297845840454102
-0.18,0.3426870107650757,0.35712578892707825,0.03511491417884827
-0.17,0.35047993063926697,0.3611641526222229,-0.03300952911376953
-0.16,0.34438467025756836,0.35147199034690857,0.03502655029296875
-0.15,0.33832308650016785,0.34268873929977417,0.11280742287635803
-0.14,0.3322995901107788,0.3340342342853546,0.11265510320663452
-0.13,0.32984718680381775,0.32984060049057007,0.18075412511825562
-0.12,0.3376486301422119,0.33678191900253296,0.22953540086746216
-0.11,0.347063809633255,0.3453216552734375,0.2296326458454132
-0.1,0.3580934703350067,0.36591094732284546,1.2818691730499268
-0.09,0.3746700584888458,0.4403870701789856,6.143233299255371
-0.08,0.4262606203556061,0.6038146615028381,11.521462440490723
-0.07,0.4941284656524658,0.8689427375793457,20.22187614440918
-0.06,0.6269998550415039,1.25247061252594,25.64029884338379
-0.05,1.0622837543487549,2.0173022747039795,32.92421340942383
-0.04,1.8402663469314575,3.164487600326538,36.52137756347656
-0.03,2.8869247436523438,4.655606269836426,44.350624084472656
-0.02,3.9271368980407715,6.202323913574219,52.1600341796875
-0.01,4.961604595184326,7.809924125671387,60.485416412353516
0.0,5.9915595054626465,9.584102630615234,79.37056732177734
0.01,6.097000598907471,10.49895191192627,91.47962951660156
0.02,6.209571838378906,11.413812637329102,91.47962951660156
0.03,6.32912015914917,12.328636169433594,91.47962951660156
0.04,6.456780910491943,13.243424415588379,91.47962951660156
0.05,6.593471050262451,14.158203125,91.47962951660156
0.06,6.738931179046631,15.013839721679688,85.56635284423828
0.07,6.892930030822754,15.869470596313477,85.56635284423828
0.08,7.055400371551514,16.725086212158203,85.56635284423828
0.09,7.2264723777771,17.580699920654297,85.56635284423828
0.1,7.406136512756348,18.436311721801758,85.56635284423828
0.11,7.594302654266357,19.28558349609375,84.93313598632812
0.12,7.790881156921387,20.134836196899414,84.93313598632812
0.13,7.9959845542907715,20.984086990356445,84.93313598632812
0.14,8.209577560424805,21.83381462097168,84.98184967041016
0.15,8.431659698486328,22.683826446533203,85.01107025146484
0.16,8.662271499633789,23.533836364746094,85.01107025146484
0.17,8.90135383605957,24.383831024169922,85.01107025146484
0.18,9.148924827575684,25.233814239501953,85.01107025146484
0.19,9.405013084411621,26.08379364013672,85.01107025146484
0.2,9.669600486755371,26.93668556213379,85.3033218383789
0.21,9.94271183013916,27.789567947387695,85.3033218383789
0.22,10.224346160888672,28.642438888549805,85.3033218383789
0.23,10.514541625976562,29.501340866088867,85.90731048583984
0.24,10.813286781311035,30.360219955444336,85.90731048583984
0.25,11.120572090148926,31.21537971496582,85.53712463378906
0.26,11.436417579650879,32.07052993774414,85.53712463378906
0.27,11.760788917541504,32.9233283996582,85.3033218383789
0.28,12.09366226196289,33.77600860595703,85.2935791015625
0.29,12.435007095336914,34.624961853027344,84.92339324951172
0.3,12.784825325012207,35.472145080566406,84.74803924560547
0.31,13.143223762512207,36.319366455078125,84.74803924560547
0.32,13.510103225708008,37.16571044921875,84.66036224365234
0.33,13.885417938232422,38.01290512084961,84.74803924560547
0.34,14.2691650390625,38.85890579223633,84.63113403320312
0.35,14.661298751831055,39.70184326171875,84.32913970947266
0.36,15.061799049377441,40.5440559387207,84.26094818115234
0.37,15.470667839050293,41.38136672973633,83.77385711669922
0.38,15.88782787322998,42.20842361450195,82.75096893310547
0.39,16.31319808959961,43.03241729736328,82.448974609375
0.4,16.74673843383789,43.85635757446289,82.448974609375
0.41,17.18846893310547,44.68025207519531,82.448974609375
0.42,17.63836097717285,45.504085540771484,82.448974609375
0.43,18.09647560119629,46.330902099609375,82.75096893310547
0.44,18.56284523010254,47.16643142700195,83.62773132324219
0.45,19.037837982177734,48.0051383972168,83.92972564697266
0.46,19.521318435668945,48.84846496582031,84.3875961303711
0.47,20.013179779052734,49.6931037902832,84.52397918701172
0.48,20.51343536376953,50.54507064819336,85.26435089111328
0.49,21.022130966186523,51.396968841552734,85.26435089111328
0.5,21.539274215698242,52.248802185058594,85.26435089111328
0.51,22.064863204956055,53.100563049316406,85.26435089111328
0.52,22.59886360168457,53.95222854614258,85.26435089111328
0.53,23.141490936279297,54.803287506103516,85.1961669921875
0.54,23.692537307739258,55.65241622924805,85.01107025146484
0.55,24.252103805541992,56.501556396484375,85.01107025146484
0.56,24.82010269165039,57.35063552856445,85.01107025146484
0.57,25.396541595458984,58.19966125488281,85.01107025146484
0.58,25.98146629333496,59.048667907714844,85.01107025146484
0.59,26.57484245300293,59.89762878417969,85.01107025146484
0.6,27.176591873168945,60.74666976928711,85.03055572509766
0.61,27.786754608154297,61.59601974487305,85.06951904296875
0.62,28.4052677154541,62.44532775878906,85.07926177978516
0.63,29.03225326538086,63.29489517211914,85.10848236083984
0.64,29.667848587036133,64.14503479003906,85.15719604492188
0.65,30.311872482299805,64.99528503417969,85.17668151855469
0.66,30.964252471923828,65.84597778320312,85.2351303100586
0.67,31.625110626220703,66.69673156738281,85.244873046875
0.68,32.29435348510742,67.5474624633789,85.2546157836914
0.69,32.97205352783203,68.39860534667969,85.3033218383789
0.7,33.65818786621094,69.24966430664062,85.3033218383789
0.71,34.35265350341797,70.10054779052734,85.3033218383789
0.72,35.05542755126953,70.95259094238281,85.43971252441406
0.73,35.766632080078125,71.8048324584961,85.46894073486328
0.74,36.48619842529297,72.65730285644531,85.50789642333984
0.75,37.2141227722168,73.50959777832031,85.50789642333984
0.76,37.950416564941406,74.36173248291016,85.50789642333984
0.77,38.695560455322266,75.21417236328125,85.50789642333984
0.78,39.448978424072266,76.06636810302734,85.50789642333984
0.79,40.210838317871094,76.91847229003906,85.50789642333984
0.8,40.98097610473633,77.77062225341797,85.53712463378906
0.81,41.75965881347656,78.62278747558594,85.53712463378906
0.82,42.5468864440918,79.47496795654297,85.53712463378906
0.83,43.34245681762695,80.3299789428711,85.83911895751953
0.84,44.14665222167969,81.18630981445312,85.96576690673828
0.85,44.9591064453125,82.0428237915039,86.01448059082031
0.86,45.7801628112793,82.89945983886719,86.02421569824219
0.87,46.609588623046875,83.75589752197266,86.02421569824219
0.88,47.447269439697266,84.61212921142578,86.0339584350586
0.89,48.293243408203125,85.46819305419922,86.043701171875
0.9,49.147796630859375,86.32427215576172,86.043701171875
0.91,50.0106201171875,87.18025207519531,86.06318664550781
0.92,50.88182067871094,88.03683471679688,86.14112091064453
0.93,51.76137161254883,88.89543151855469,86.36518096923828
0.94,52.64934158325195,89.7545394897461,86.4333724975586
0.95,53.54561233520508,90.61607360839844,86.70614624023438
0.96,54.450836181640625,91.47852325439453,86.76459503173828
0.97,55.36433410644531,92.34063720703125,86.76459503173828
0.98,56.28647232055664,93.20287322998047,86.77433776855469
0.99,57.2169303894043,94.06481170654297,86.77433776855469
1.0,58.15565490722656,94.9264144897461,86.77433776855469
1.01,59.1025276184082,95.78746032714844,86.76459503173828
1.02,60.05748748779297,96.64810180664062,86.77433776855469
1.03,61.02058029174805,97.50829315185547,86.77433776855469
1.04,61.99178695678711,98.36811065673828,86.78407287597656
1.05,62.97159194946289,99.22804260253906,86.79381561279297
1.06,63.96052932739258,100.08966827392578,86.91072082519531
1.07,64.95825958251953,100.95438385009766,87.2029800415039
1.08,65.96402740478516,101.8186264038086,87.21271514892578
1.09,66.97789001464844,102.68244934082031,87.22245788574219
1.1,67.99991607666016,103.54902648925781,87.54393768310547
1.11,69.03067779541016,104.41616821289062,87.5926513671875
1.12,70.06954956054688,105.2831802368164,87.63162231445312
1.13,71.11646270751953,106.14971160888672,87.641357421875
1.14,72.17144012451172,107.01617431640625,87.69007110595703
1.15,73.23490142822266,107.88326263427734,87.76799774169922
1.16,74.30767059326172,108.7537841796875,88.0505142211914
1.17,75.3884048461914,109.6241226196289,88.0992202758789
1.18,76.47721862792969,110.4939956665039,88.10896301269531
1.19,77.57447052001953,111.3641357421875,88.15766906738281
1.2,78.6798095703125,112.2339096069336,88.17716217041016
1.21,79.79310607910156,113.103515625,88.22586822509766
1.22,80.91499328613281,113.9737319946289,88.29405975341797
1.23,82.04537963867188,114.84417724609375,88.3330307006836
1.24,83.18450927734375,115.715087890625,88.37199401855469
1.25,84.3316879272461,116.5854263305664,88.37199401855469
1.26,85.4867935180664,117.455078125,88.37199401855469
1.27,86.65000915527344,118.32549285888672,88.4986343383789
1.28,87.82188415527344,119.19609069824219,88.51811981201172
1.29,89.00155639648438,120.06775665283203,88.70320892333984
1.3,90.18896484375,120.9411849975586,88.96624755859375
1.31,91.38525390625,121.81519317626953,89.00520324707031
1.32,92.58972930908203,122.69009399414062,89.14159393310547
1.33,93.802490234375,123.56472778320312,89.15133666992188
1.34,95.0233383178711,124.43920135498047,89.19029998779297
1.35,96.25262451171875,125.31452941894531,89.2974624633789
1.36,97.49010467529297,126.19232177734375,89.58971405029297
1.37,98.73578643798828,127.07295227050781,89.92093658447266
1.38,99.98919677734375,127.95317077636719,89.96965026855469
1.39,101.25111389160156,128.8331756591797,89.96965026855469
1.4,102.5208969116211,129.71243286132812,89.96965026855469
1.41,103.79844665527344,130.59133911132812,90.01835632324219
1.42,105.08509063720703,131.4720458984375,90.16448211669922
1.43,106.37924194335938,132.3516845703125,90.16448211669922
1.44,107.68233489990234,133.2316131591797,90.17422485351562
1.45,108.99459838867188,134.11224365234375,90.20345306396484
1.46,110.31492614746094,134.99412536621094,90.3885498046875
1.47,111.64299011230469,135.87864685058594,90.7392578125
1.48,112.97860717773438,136.76223754882812,90.74899291992188
1.49,114.32149505615234,137.6446533203125,90.75873565673828
1.5,115.6751937866211,138.5293426513672,90.80744171142578
1.51,117.0374526977539,139.41416931152344,90.836669921875
1.52,118.4081039428711,140.2992706298828,90.8951187133789
1.53,119.7861099243164,141.1839599609375,90.97305297851562
1.54,121.1712417602539,142.06787109375,91.03150939941406
1.55,122.56529235839844,142.9521484375,91.05098724365234
1.56,123.96820068359375,143.83963012695312,91.36272430419922
1.57,125.37862396240234,144.72817993164062,91.5770492553711
1.58,126.79652404785156,145.61691284179688,91.70368957519531
1.59,128.22412109375,146.50711059570312,91.77188873291016
1.6,129.65887451171875,147.39663696289062,91.84007263183594
1.61,131.10061645507812,148.2847900390625,91.84981536865234
1.62,132.55007934570312,149.17218017578125,91.85955810546875
1.63,134.0078125,150.0592041015625,91.85955810546875
1.64,135.47422790527344,150.9488983154297,92.13233184814453
1.65,136.94808959960938,151.83908081054688,92.28820037841797
1.66,138.4286346435547,152.72874450683594,92.40510559082031
1.67,139.9169464111328,153.619384765625,92.58045196533203
1.68,141.41259765625,154.51004028320312,92.69735717773438
1.69,142.9156494140625,155.39999389648438,92.73632049560547
1.7,144.42494201660156,156.2914581298828,93.08702087402344
1.71,145.9424285888672,157.1827850341797,93.11624908447266
1.72,147.46603393554688,158.07350158691406,93.26238250732422
1.73,148.99591064453125,158.96229553222656,93.26238250732422
1.74,150.5342254638672,159.8508758544922,93.26238250732422
1.75,152.08287048339844,160.74075317382812,93.26238250732422
1.76,153.6375274658203,161.62705993652344,93.11624908447266
1.77,155.20005798339844,162.51217651367188,93.05780029296875
1.78,156.76914978027344,163.39413452148438,92.90193176269531
1.79,158.34500122070312,164.274658203125,92.90193176269531
1.8,159.92767333984375,165.15382385253906,92.90193176269531
1.81,161.51800537109375,166.0323028564453,92.90193176269531
1.82,163.11703491210938,166.910888671875,92.90193176269531
1.83,164.7215576171875,167.78868103027344,93.05780029296875
1.84,166.33213806152344,168.6650848388672,93.10651397705078
1.85,167.95077514648438,169.54115295410156,93.10651397705078
1.86,169.5747833251953,170.41612243652344,93.233154296875
1.87,171.2073516845703,171.2916259765625,93.2818603515625
1.88,172.84535217285156,172.16793823242188,93.5936050415039
1.89,174.49111938476562,173.04061889648438,93.2818603515625
1.9,176.14418029785156,173.91244506835938,93.2818603515625
1.91,177.80540466308594,174.78407287597656,93.2818603515625
1.92,179.47174072265625,175.65150451660156,93.10651397705078
1.93,181.14553833007812,176.5181427001953,93.09677124023438
1.94,182.8272247314453,177.38442993164062,93.09677124023438
1.95,184.51568603515625,178.24847412109375,92.98960876464844
1.96,186.2109832763672,179.11105346679688,92.95064544677734
1.97,187.91065979003906,179.97079467773438,92.95064544677734
1.98,189.61740112304688,180.82965087890625,92.95064544677734
1.99,191.32899475097656,181.68605041503906,92.95064544677734
2.0,193.04684448242188,182.54104614257812,92.95064544677734
2.01,194.77005004882812,183.39292907714844,92.84347534179688
2.02,196.49917602539062,184.24322509765625,92.84347534179688
2.03,198.23611450195312,185.09327697753906,92.84347534179688
2.04,199.97959899902344,185.9422149658203,92.84347534179688
2.05,201.7275848388672,186.78346252441406,92.32716369628906
2.06,203.48193359375,187.62197875976562,92.17129516601562
2.07,205.24166870117188,188.45846557617188,92.15180969238281
2.08,207.01022338867188,189.29556274414062,92.15180969238281
2.09,208.7857666015625,190.1319580078125,92.15180969238281
2.1,210.57107543945312,190.96768188476562,91.95697784423828
2.11,212.36180114746094,191.80076599121094,91.86930084228516
2.12,214.16445922851562,192.63661193847656,91.86930084228516
2.13,215.9773712158203,193.47366333007812,91.83033752441406
2.14,217.79684448242188,194.30972290039062,91.83033752441406
2.15,219.62283325195312,195.14479064941406,91.83033752441406
2.16,221.46322631835938,195.9842529296875,91.83033752441406
2.17,223.30914306640625,196.8218231201172,91.81084442138672
2.18,225.1719512939453,197.66368103027344,91.635498046875
2.19,227.04786682128906,198.5076904296875,91.50885009765625
2.2,228.92935180664062,199.34999084472656,91.50885009765625
2.21,230.81976318359375,200.1920928955078,91.43092346191406
2.22,232.71957397460938,201.0350799560547,91.43092346191406
2.23,234.62879943847656,201.8789520263672,91.43092346191406
2.24,236.5514678955078,202.72637939453125,91.43092346191406
2.25,238.484130859375,203.57568359375,91.49911499023438
2.26,240.42636108398438,204.4259033203125,91.49911499023438
2.27,242.37313842773438,205.27371215820312,91.49911499023438
2.28,244.33387756347656,206.12533569335938,91.49911499023438
2.29,246.2971954345703,206.9726104736328,91.43092346191406
2.3,248.26959228515625,207.81890869140625,91.27505493164062
2.31,250.24769592285156,208.6624755859375,91.15814971923828
2.32,252.22926330566406,209.50274658203125,91.1289291381836
2.33,254.21881103515625,210.34295654296875,91.1289291381836
2.34,256.21881103515625,211.1846923828125,91.1289291381836
2.35,258.2205810546875,212.02236938476562,91.1289291381836
2.36,260.2254333496094,212.857177734375,91.15814971923828
2.37,262.2330322265625,213.68862915039062,91.15814971923828
2.38,264.2470703125,214.51914978027344,91.15814971923828
2.39,266.2714538574219,215.3507843017578,91.11917877197266
2.4,268.3011779785156,216.1807861328125,91.11917877197266
2.41,270.33673095703125,217.0094757080078,91.11917877197266
2.42,272.37347412109375,217.83261108398438,90.98280334472656
2.43,274.4109802246094,218.6513214111328,90.98280334472656
2.44,276.4608459472656,219.472900390625,90.98280334472656
2.45,278.5148620605469,220.29222106933594,90.98280334472656
2.46,280.5721130371094,221.10873413085938,90.98280334472656
2.47,282.64093017578125,221.9269256591797,90.91460418701172
2.48,284.7154235839844,222.74383544921875,90.91460418701172
2.49,286.7944030761719,223.55950927734375,90.99253845214844
2.5,288.8795166015625,224.3742218017578,90.99253845214844
2.51,290.97332763671875,225.18955993652344,90.99253845214844
